EC-Lab ASCII FILE
Nb header lines : 60                          

Potentio Electrochemical Impedance Spectroscopy

Run on channel : 3 (SN 20921)
User : 
CE vs. WE compliance from -10 V to 10 V
Electrode connection : standard
Ewe ctrl range : min = -10.00 V, max = 10.00 V
Acquisition started on : 02/20/2020 14:52:34
Technique started on : 02/20/2020 14:52:35
Saved on :
	File : DE_65_3_60.mpr
	Directory : P:\Chemistry\Data\VMP3\Kyler\DOE\DE_65\60C\
	Host : 10.0.4.64
Device : VMP3 (SN 1432)
Address : USB
EC-Lab for windows v11.33 (software)
Internet server v11.32 (firmware)
Command interpretor v11.33 (firmware)
Electrode material : 
Initial state : 
Electrolyte : 
Comments : 
Electrode surface area : 0.001 cm²
Characteristic mass : 0.001 g
Equivalent Weight : 0.000 g/eq.
Density : 0.000 g/cm3
Record Analogic IN 1
Cycle Definition : Charge/Discharge alternance
Mode                Single sine         
E (V)               0.0000              
vs.                 Eoc                 
tE (h:m:s)          0:00:0.0000         
record              0                   
dI                  1.000               
unit dI             mA                  
dt (s)              0.000               
fi                  1.000               
unit fi             MHz                 
ff                  1.000               
unit ff             Hz                  
Nd                  20                  
Points              per decade          
spacing             Logarithmic         
Va (mV)             128.0               
pw                  0.50                
Na                  3                   
corr                0                   
E range min (V)     -10.000             
E range max (V)     10.000              
I Range             Auto                
Bandwidth           5                   
nc cycles           0                   
goto Ns'            0                   
nr cycles           0                   
inc. cycle          1                   

freq/Hz	Re(Z)/Ohm	-Im(Z)/Ohm	|Z|/Ohm	Phase(Z)/deg	time/s	<Ewe>/V	<I>/mA	Cs/µF	Cp/µF	cycle number	I Range	|Ewe|/V	|I|/A	(Q-Qo)/mA.h	Analog IN 1/V	Re(Y)/Ohm-1	Im(Y)/Ohm-1	|Y|/Ohm-1	Phase(Y)/deg	dq/mA.h	
1.0000186E+006	8.6024040E+001	3.1240919E+001	9.1521202E+001	-1.9959249E+001	1.951477879338199E+000	-3.0229788E-003	-5.4580078E-004	5.0943438E-003	5.9359800E-004	1.000000000000000E+000	11	3.1259842E-003	3.4155848E-005	-1.344739028334314E-007	-5.5848894E-004	1.0270141E-002	3.7297558E-003	1.0926430E-002	1.9959249E+001	-1.344739028334314E-007
8.9124669E+005	8.8027840E+001	2.7968288E+001	9.2364090E+001	-1.7626143E+001	2.547486494324403E+000	-2.6103305E-003	-5.4934155E-004	6.3849324E-003	5.8543921E-004	1.000000000000000E+000	11	4.4481540E-003	4.8158912E-005	-2.477334062872008E-007	-3.1798857E-004	1.0318432E-002	3.2783819E-003	1.0826718E-002	1.7626143E+001	-1.132595034537695E-007
7.9433269E+005	9.0635056E+001	2.5539671E+001	9.4164688E+001	-1.5737082E+001	3.143487669265596E+000	-2.2587406E-003	-4.9696624E-004	7.8451708E-003	5.7710765E-004	1.000000000000000E+000	11	6.2592123E-003	6.6470908E-005	-2.473847815656174E-007	-3.9815533E-004	1.0221628E-002	2.8803095E-003	1.0619693E-002	1.5737082E+001	3.486247215834085E-010
7.0794981E+005	9.3195999E+001	2.3519794E+001	9.6118027E+001	-1.4163929E+001	3.739483457611641E+000	-1.9539509E-003	-4.3005214E-004	9.5583769E-003	5.7232339E-004	1.000000000000000E+000	11	8.5999742E-003	8.9473062E-005	-2.751310930580075E-007	-1.5765498E-004	1.0087593E-002	2.5457973E-003	1.0403875E-002	1.4163929E+001	-2.774631149239008E-008
6.3095681E+005	9.5637863E+001	2.1884970E+001	9.8109901E+001	-1.2889170E+001	4.335488605924184E+000	-1.6873323E-003	-4.1551350E-004	1.1525893E-002	5.7350972E-004	1.000000000000000E+000	11	1.1494171E-002	1.1715607E-004	-2.200998803204534E-007	-2.3782176E-004	9.9358307E-003	2.2736324E-003	1.0192651E-002	1.2889170E+001	5.503121273755416E-008
5.6234225E+005	9.7741272E+001	2.0498676E+001	9.9867676E+001	-1.1844624E+001	4.931488740869099E+000	-1.4656689E-003	-2.8000923E-004	1.3806818E-002	5.8169506E-004	1.000000000000000E+000	11	1.4948891E-002	1.4968698E-004	-3.072433165074876E-007	2.6785929E-006	9.8000458E-003	2.0553032E-003	1.0013250E-002	1.1844624E+001	-8.714343618703421E-008
5.0120619E+005	9.9647438E+001	1.9253128E+001	1.0149037E+002	-1.0935510E+001	5.528487382543972E+000	-1.3103571E-003	-3.1262508E-004	1.6493104E-002	5.9354730E-004	1.000000000000000E+000	11	1.9000981E-002	1.8721954E-004	-3.153695662513201E-007	-7.7488192E-005	9.6742315E-003	1.8691821E-003	9.8531516E-003	1.0935510E+001	-8.126249743832524E-009
4.4668572E+005	1.0131199E+002	1.8045546E+001	1.0290656E+002	-1.0099524E+001	6.123481010814430E+000	-1.1823130E-003	-3.2436647E-004	1.9744586E-002	6.0715829E-004	1.000000000000000E+000	11	2.3658948E-002	2.2990709E-004	-2.284109846938615E-007	-6.3865574E-004	9.5669758E-003	1.7040560E-003	9.7175529E-003	1.0099524E+001	8.695858155745861E-008
3.9810347E+005	1.0268753E+002	1.6935390E+001	1.0407467E+002	-9.3650112E+000	6.719478719140170E+000	-1.1524919E-003	-4.0115759E-004	2.3606358E-002	6.2507094E-004	1.000000000000000E+000	11	2.8962091E-002	2.7828183E-004	-8.476038640013333E-007	2.6785929E-006	9.4804214E-003	1.5635261E-003	9.6084857E-003	9.3650112E+000	-6.191928793074718E-007
3.5480997E+005	1.0390154E+002	1.5809902E+001	1.0509749E+002	-8.6518946E+000	7.315482347417856E+000	-1.1331079E-003	-3.8698901E-004	2.8372338E-002	6.4205000E-004	1.000000000000000E+000	11	3.4966588E-002	3.3270623E-004	-1.046334711709076E-006	-1.5765498E-004	9.4066998E-003	1.4313456E-003	9.5149754E-003	8.6518946E+000	-1.987308477077426E-007
3.1622997E+005	1.0496191E+002	1.4752851E+001	1.0599363E+002	-8.0007582E+000	7.911483815725660E+000	-1.1325858E-003	-4.5390028E-004	3.4114666E-002	6.6089659E-004	1.000000000000000E+000	11	4.1766856E-002	3.9405061E-004	-1.276172634660826E-006	-7.7488192E-005	9.3426956E-003	1.3131563E-003	9.4345296E-003	8.0007582E+000	-2.298379229517500E-007
2.8183453E+005	1.0587785E+002	1.3714617E+001	1.0676240E+002	-7.3805666E+000	8.506491364008980E+000	-1.1354747E-003	-3.4560743E-004	4.1175820E-002	6.7947421E-004	1.000000000000000E+000	11	4.9433034E-002	4.6301915E-004	-1.033998626387781E-006	-7.7488192E-005	9.2889890E-003	1.2032255E-003	9.3665933E-003	7.3805666E+000	2.421740082730444E-007
2.5118764E+005	1.0664843E+002	1.2775212E+001	1.0741087E+002	-6.8308039E+000	9.101480618963251E+000	-1.1320265E-003	-3.2417243E-004	4.9596809E-002	7.0160645E-004	1.000000000000000E+000	11	5.8034439E-002	5.4030324E-004	-1.715803674707179E-006	-3.9815533E-004	9.2439596E-003	1.1073162E-003	9.3100453E-003	6.8308039E+000	-6.818050483193980E-007
2.2387173E+005	1.0731792E+002	1.1828075E+001	1.0796777E+002	-6.2894859E+000	9.697483793919673E+000	-1.1232847E-003	-3.5063789E-004	6.0104471E-002	7.2135101E-004	1.000000000000000E+000	11	6.7577288E-002	6.2590238E-004	-2.905517936480060E-006	-1.5765498E-004	9.2062755E-003	1.0146723E-003	9.2620226E-003	6.2894859E+000	-1.189714261772881E-006
1.9954350E+005	1.0791624E+002	1.0990241E+001	1.0847442E+002	-5.8149815E+000	1.029447515562060E+001	-1.1124556E-003	-3.8231807E-004	7.2573043E-002	7.4496371E-004	1.000000000000000E+000	11	7.8056186E-002	7.1958150E-004	-3.382323090074755E-006	-7.7488192E-005	9.1713257E-003	9.3401223E-004	9.2187636E-003	5.8149815E+000	-4.768051535946948E-007
1.7783180E+005	1.0842948E+002	1.0222780E+001	1.0891032E+002	-5.3859515E+000	1.089048577056383E+001	-1.1076654E-003	-3.6218431E-004	8.7547086E-002	7.7133265E-004	1.000000000000000E+000	11	8.9423031E-002	8.2107034E-004	-2.817674600141294E-006	8.2845378E-005	9.1413287E-003	8.6184859E-004	9.1818664E-003	5.3859515E+000	5.646484899334609E-007
1.5848613E+005	1.0888066E+002	9.5142612E+000	1.0929556E+002	-4.9939613E+000	1.148648465223960E+001	-1.0831374E-003	-3.6386095E-004	1.0554893E-001	7.9983223E-004	1.000000000000000E+000	11	1.0162908E-001	9.2985551E-004	-4.582935752745269E-006	1.6301216E-004	9.1147693E-003	7.9647102E-004	9.1495020E-003	4.9939613E+000	-1.765261152603974E-006
1.4125594E+005	1.0927939E+002	8.8724966E+000	1.0963898E+002	-4.6417170E+000	1.208349417391582E+001	-1.0816462E-003	-2.9098353E-004	1.2698942E-001	8.3162839E-004	1.000000000000000E+000	11	1.1471064E-001	1.0462578E-003	-3.912498970849508E-006	-7.1882247E-004	9.0909302E-003	7.3810120E-004	9.1208443E-003	4.6417170E+000	6.704367818957609E-007
1.2590930E+005	1.0964188E+002	8.2877235E+000	1.0995467E+002	-4.3227119E+000	1.254349275576533E+001	-1.0731092E-003	-2.7066487E-004	1.5252011E-001	8.6650340E-004	1.000000000000000E+000	11	1.2874603E-001	1.1709010E-003	-4.895423208160032E-006	-4.7832212E-004	9.0687862E-003	6.8550074E-004	9.0946574E-003	4.3227119E+000	-9.829242373105241E-007
1.1220494E+005	1.0996440E+002	7.7662516E+000	1.1023830E+002	-4.0398149E+000	1.313849262401345E+001	-9.9706568E-004	-2.1120654E-004	1.8264034E-001	9.0647233E-004	1.000000000000000E+000	11	1.2918720E-001	1.1718903E-003	-4.651076968465431E-006	-2.3782176E-004	9.0487180E-003	6.3906703E-004	9.0712570E-003	4.0398149E+000	2.443462396946010E-007
1.0000371E+005	1.1024826E+002	7.3034725E+000	1.1048991E+002	-3.7900608E+000	1.373449235901353E+001	-9.7570632E-004	-2.1176549E-004	2.1790873E-001	9.5211231E-004	1.000000000000000E+000	11	1.2969327E-001	1.1738020E-003	-5.068309742760499E-006	2.6785929E-006	9.0308059E-003	5.9825199E-004	9.0506002E-003	3.7900608E+000	-4.172327742950678E-007
8.9129305E+004	1.1050073E+002	6.8869591E+000	1.1071514E+002	-3.5663469E+000	1.433047697399161E+001	-9.4340643E-004	-3.4260956E-004	2.5928184E-001	1.0032590E-003	1.000000000000000E+000	11	1.2959944E-001	1.1705665E-003	-8.128845862000162E-006	2.6785929E-006	9.0146968E-003	5.6184101E-004	9.0321880E-003	3.5663469E+000	-3.060536119239664E-006
7.9433273E+004	1.1072586E+002	6.5222945E+000	1.1091779E+002	-3.3711061E+000	1.492647692226456E+001	-9.0918678E-004	-2.3264129E-004	3.0719721E-001	1.0622229E-003	1.000000000000000E+000	11	1.2952799E-001	1.1677836E-003	-7.105846128827883E-006	-7.7488192E-005	9.0000853E-003	5.3014903E-004	9.0156859E-003	3.3711061E+000	1.022999733172280E-006
7.0794977E+004	1.1092221E+002	6.2171221E+000	1.1109631E+002	-3.2080367E+000	1.552247415060992E+001	-8.8076363E-004	-2.4755349E-004	3.6159986E-001	1.1324208E-003	1.000000000000000E+000	11	1.2941834E-001	1.1649203E-003	-5.763542818407182E-006	8.2845378E-005	8.9870933E-003	5.0372106E-004	9.0011992E-003	3.2080367E+000	1.342303310420700E-006
6.3093828E+004	1.1110666E+002	5.9649105E+000	1.1126666E+002	-3.0730510E+000	1.611848060556804E+001	-8.7062456E-004	-2.9489552E-004	4.2289186E-001	1.2153659E-003	1.000000000000000E+000	11	1.2948360E-001	1.1637232E-003	-5.004756533198411E-006	-7.7488192E-005	8.9744944E-003	4.8180783E-004	8.9874184E-003	3.0730510E+000	7.587862852087711E-007
5.6237012E+004	1.1126393E+002	5.7617593E+000	1.1141302E+002	-2.9643917E+000	1.671349231383647E+001	-8.5064443E-004	-1.5864658E-004	4.9118236E-001	1.3136545E-003	1.000000000000000E+000	11	1.2942469E-001	1.1616658E-003	-7.535293903457689E-006	1.6301216E-004	8.9636017E-003	4.6417661E-004	8.9756120E-003	2.9643917E+000	-2.530537370259278E-006
5.0122477E+004	1.1141187E+002	5.6132221E+000	1.1155318E+002	-2.8842731E+000	1.717348348235828E+001	-8.6318736E-004	-2.4605743E-004	5.6568593E-001	1.4323065E-003	1.000000000000000E+000	11	1.4064102E-001	1.2607531E-003	-7.581395284839042E-006	8.2845378E-005	8.9529790E-003	4.5107459E-004	8.9643346E-003	2.8842731E+000	-4.610138138135298E-008
4.4666715E+004	1.1154125E+002	5.5147853E+000	1.1167750E+002	-2.8304939E+000	1.776848103062366E+001	-8.1903418E-004	-2.2798148E-004	6.4611155E-001	1.5755543E-003	1.000000000000000E+000	11	1.3033235E-001	1.1670422E-003	-7.131429054228647E-006	8.2845378E-005	8.9434311E-003	4.4217813E-004	8.9543555E-003	2.8304939E+000	4.499662306103953E-007
3.9814063E+004	1.1166483E+002	5.4726157E+000	1.1179885E+002	-2.8057816E+000	1.822849734578631E+001	-8.1049738E-004	-1.7653794E-004	7.3044699E-001	1.7502655E-003	1.000000000000000E+000	11	1.4008248E-001	1.2529867E-003	-6.483961517990893E-006	-1.5765498E-004	8.9339130E-003	4.3784492E-004	8.9446362E-003	2.8057816E+000	6.474675362377538E-007
3.5480996E+004	1.1178124E+002	5.4841280E+000	1.1191569E+002	-2.8087506E+000	1.882347697406658E+001	-7.9174788E-004	-2.1437611E-004	8.1793118E-001	1.9640385E-003	1.000000000000000E+000	11	1.3023943E-001	1.1637281E-003	-4.915754400863483E-006	-3.9815533E-004	8.9245634E-003	4.3785028E-004	8.9352978E-003	2.8087506E+000	1.568207117127410E-006
3.1621143E+004	1.1189108E+002	5.5494018E+000	1.1202860E+002	-2.8393416E+000	1.928247712916345E+001	-8.0628513E-004	-2.1810229E-004	9.0697724E-001	2.2255168E-003	1.000000000000000E+000	11	1.3827167E-001	1.2342533E-003	-4.791952772114908E-006	2.4317895E-004	8.9153340E-003	4.4216905E-004	8.9262920E-003	2.8393416E+000	1.238016287485755E-007
2.8188096E+004	1.1199275E+002	5.6706386E+000	1.1213622E+002	-2.8986378E+000	1.987849641081993E+001	-7.7752699E-004	-1.6610138E-004	9.9568605E-001	2.5462117E-003	1.000000000000000E+000	11	1.2978806E-001	1.1574142E-003	-3.424254938265221E-006	-2.3782176E-004	8.9063151E-003	4.5096216E-004	8.9177247E-003	2.8986378E+000	1.367697833849686E-006
2.5116910E+004	1.1210316E+002	5.8496823E+000	1.1225568E+002	-2.9870560E+000	2.033848715267959E+001	-7.7737757E-004	-2.3580984E-004	1.0832324E+000	2.9415048E-003	1.000000000000000E+000	11	1.3606715E-001	1.2121182E-003	-4.193524592339802E-006	-7.9898926E-004	8.8961320E-003	4.6421128E-004	8.9082355E-003	2.9870560E+000	-7.692696540745802E-007
2.2389027E+004	1.1220096E+002	6.0859175E+000	1.1236589E+002	-3.1047509E+000	2.093448048763094E+001	-7.7066815E-004	-2.4028310E-004	1.1680431E+000	3.4264307E-003	1.000000000000000E+000	11	1.2933609E-001	1.1510262E-003	-3.566406308084374E-006	-7.1882247E-004	8.8864351E-003	4.8201112E-004	8.8994978E-003	3.1047509E+000	6.271182842554280E-007
1.9948783E+004	1.1231227E+002	6.3882627E+000	1.1249380E+002	-3.2554460E+000	2.139449234950007E+001	-7.5886986E-004	-1.2472361E-004	1.2488807E+000	4.0274421E-003	1.000000000000000E+000	11	1.3398948E-001	1.1910832E-003	-2.889296213330252E-006	4.0351250E-004	8.8750329E-003	5.0480722E-004	8.8893780E-003	3.2554460E+000	6.771100947541221E-007
1.7786895E+004	1.1242006E+002	6.7538323E+000	1.1262275E+002	-3.4380124E+000	2.185447738468065E+001	-7.6802116E-004	-2.5705728E-004	1.3248593E+000	4.7645075E-003	1.000000000000000E+000	11	1.3804457E-001	1.2257254E-003	-3.131139310510561E-006	-3.1798857E-004	8.8632200E-003	5.3247350E-004	8.8792006E-003	3.4380124E+000	-2.418430971803091E-007
1.5847686E+004	1.1252533E+002	7.1874714E+000	1.1275465E+002	-3.6547599E+000	2.245048170632799E+001	-7.5413613E-004	-2.1679948E-004	1.3972629E+000	5.6775571E-003	1.000000000000000E+000	11	1.2934743E-001	1.1471583E-003	-4.697618125521533E-007	-2.3782176E-004	8.8507775E-003	5.6533678E-004	8.8688144E-003	3.6547599E+000	2.661377497958407E-006
1.4121879E+004	1.1264783E+002	7.6951551E+000	1.1291035E+002	-3.9078960E+000	2.290947260809480E+001	-7.6006289E-004	-1.4559922E-004	1.4645705E+000	6.8026399E-003	1.000000000000000E+000	11	1.3208637E-001	1.1698339E-003	-1.156321138003275E-006	8.2845378E-005	8.8359909E-003	6.0360081E-004	8.8565834E-003	3.9078960E+000	-6.865593254511219E-007
1.2590932E+004	1.1276788E+002	8.2815657E+000	1.1307157E+002	-4.2002072E+000	2.336847612322890E+001	-7.5987645E-004	-2.3170894E-004	1.5263349E+000	8.1878118E-003	1.000000000000000E+000	11	1.3437608E-001	1.1884162E-003	-5.563541648738869E-007	-3.1798857E-004	8.8202022E-003	6.4774725E-004	8.8439556E-003	4.2002072E+000	5.999669731293882E-007
1.1217711E+004	1.1289718E+002	8.9673405E+000	1.1325275E+002	-4.5414271E+000	2.382749681171845E+001	-7.4977445E-004	-1.6871022E-004	1.5821668E+000	9.9193230E-003	1.000000000000000E+000	11	1.3628975E-001	1.2034122E-003	-7.106831285026500E-007	2.6785929E-006	8.8020843E-003	6.9914310E-004	8.8298069E-003	4.5414271E+000	-1.543289636287631E-007
1.0002229E+004	1.1303422E+002	9.7364445E+000	1.1345277E+002	-4.9231429E+000	2.428648515351233E+001	-7.5983896E-004	-2.5221021E-004	1.6342666E+000	1.2036312E-002	1.000000000000000E+000	11	1.3785464E-001	1.2150839E-003	-1.374344704310918E-006	-1.5765498E-004	8.7817218E-003	7.5643242E-004	8.8142399E-003	4.9231429E+000	-6.636615758082675E-007
8.9149297E+003	1.1318124E+002	1.0610530E+001	1.1367751E+002	-5.3557186E+000	2.476892514980864E+001	-7.3792046E-004	-6.5824090E-005	1.6825389E+000	1.4658521E-002	1.000000000000000E+000	11	1.3913538E-001	1.2239481E-003	-4.449954711182929E-007	-6.3865574E-004	8.7584117E-003	8.2108466E-004	8.7968148E-003	5.3557186E+000	9.293492331926245E-007
7.9439976E+003	1.1333465E+002	1.1607183E+001	1.1392747E+002	-5.8475666E+000	2.529498930810951E+001	-7.3943014E-004	-1.0627024E-004	1.7260534E+000	1.7916406E-002	1.000000000000000E+000	11	1.4017312E-001	1.2303715E-003	-2.025327301141968E-007	-1.5765498E-004	8.7318402E-003	8.9427253E-004	8.7775141E-003	5.8475666E+000	2.424627410040962E-007
7.0822334E+003	1.1349534E+002	1.2717617E+001	1.1420564E+002	-6.3935561E+000	2.604088131687604E+001	-7.1904057E-004	7.6112556E-006	1.7670308E+000	2.1911925E-002	1.000000000000000E+000	11	1.2930024E-001	1.1321703E-003	-1.307471375116721E-006	-3.9815533E-004	8.7016756E-003	9.7505836E-004	8.7561347E-003	6.3935561E+000	-1.104938645002524E-006
6.3077344E+003	1.1366788E+002	1.3989260E+001	1.1452548E+002	-7.0161872E+000	2.667553788030637E+001	-7.1956235E-004	-1.9312822E-004	1.8036489E+000	2.6911456E-002	1.000000000000000E+000	11	1.2992021E-001	1.1344219E-003	-8.667707731013555E-007	-2.3782176E-004	8.6662956E-003	1.0665726E-003	8.7316809E-003	7.0161872E+000	4.407006020153656E-007
5.6210552E+003	1.1386420E+002	1.5392101E+001	1.1489983E+002	-7.6985459E+000	2.737627282025642E+001	-7.0871494E-004	-1.0366124E-004	1.8395193E+000	3.3011205E-002	1.000000000000000E+000	11	1.3040908E-001	1.1349806E-003	-1.637970484402306E-006	-3.1798857E-004	8.6247874E-003	1.1658941E-003	8.7032327E-003	7.6985459E+000	-7.711997113009501E-007
5.0116035E+003	1.1407754E+002	1.6959772E+001	1.1533134E+002	-8.4561577E+000	2.813668410977698E+001	-7.0933002E-004	-5.9113827E-005	1.8725069E+000	4.0491953E-002	1.000000000000000E+000	11	1.3079837E-001	1.1341095E-003	-1.999251512529655E-006	-6.3865574E-004	8.5764080E-003	1.2750444E-003	8.6706700E-003	8.4561577E+000	-3.612810281273495E-007
4.4664292E+003	1.1429299E+002	1.8725897E+001	1.1581687E+002	-9.3047361E+000	2.889670062587538E+001	-7.0832355E-004	-9.4528565E-005	1.9029046E+000	4.9746055E-002	1.000000000000000E+000	11	1.3109332E-001	1.1319018E-003	-2.759544931155284E-006	-3.1798857E-004	8.5207131E-003	1.3960435E-003	8.6343205E-003	9.3047361E+000	-7.602934186256285E-007
3.9812742E+003	1.1453410E+002	2.0701494E+001	1.1638991E+002	-1.0245328E+001	2.965669460863865E+001	-7.1827631E-004	-1.5063204E-004	1.9310626E+000	6.1089855E-002	1.000000000000000E+000	11	1.3132250E-001	1.1282980E-003	-2.034618007294436E-006	-3.1798857E-004	8.4548155E-003	1.5281677E-003	8.5918102E-003	1.0245328E+001	7.249269238608476E-007
3.5465955E+003	1.1480447E+002	2.2908018E+001	1.1706770E+002	-1.1284556E+001	3.041692861806951E+001	-7.0120371E-004	-1.0328989E-004	1.9589393E+000	7.5010464E-002	1.000000000000000E+000	11	1.3150217E-001	1.1233002E-003	-1.786936342639011E-006	2.6785929E-006	8.3769262E-003	1.6715272E-003	8.5420664E-003	1.1284556E+001	2.476816646554249E-007
3.1610112E+003	1.1508938E+002	2.5367977E+001	1.1785202E+002	-1.2430359E+001	3.117667798750335E+001	-7.1035500E-004	-1.1074451E-004	1.9847611E+000	9.1961466E-002	1.000000000000000E+000	11	1.3163108E-001	1.1169183E-003	-1.183154059703762E-006	-4.7832212E-004	8.2863104E-003	1.8264669E-003	8.4852176E-003	1.2430359E+001	6.037822829352486E-007
2.8172952E+003	1.1540584E+002	2.8101337E+001	1.1877792E+002	-1.3685203E+001	3.193593562353635E+001	-7.0830481E-004	-1.0589913E-004	2.0102997E+000	1.1252353E-001	1.000000000000000E+000	11	1.3172321E-001	1.1089874E-003	-9.071431654192566E-007	4.0351250E-004	8.1800576E-003	1.9918452E-003	8.4190732E-003	1.3685203E+001	2.760108942845059E-007
2.5108032E+003	1.1577173E+002	3.1154093E+001	1.1989024E+002	-1.5061465E+001	3.269569384631905E+001	-7.1533141E-004	-1.0068047E-004	2.0346622E+000	1.3738993E-001	1.000000000000000E+000	11	1.3179745E-001	1.0993176E-003	-1.277054645118672E-007	-2.3782176E-004	8.0544306E-003	2.1674416E-003	8.3409622E-003	1.5061465E+001	7.794377009073894E-007
2.2378516E+003	1.1615381E+002	3.4561546E+001	1.2118667E+002	-1.6570366E+001	3.345593948240275E+001	-7.0854719E-004	-7.2163450E-005	2.0577645E+000	1.6736796E-001	1.000000000000000E+000	11	1.3183974E-001	1.0879063E-003	9.629566981958407E-009	-1.5765498E-004	7.9090400E-003	2.3533339E-003	8.2517331E-003	1.6570366E+001	1.373350314938256E-007
1.9956389E+003	1.1658220E+002	3.8340206E+001	1.2272482E+002	-1.8204405E+001	3.421569765184540E+001	-7.1682251E-004	-1.8157309E-004	2.0800977E+000	2.0301487E-001	1.000000000000000E+000	11	1.3185972E-001	1.0744340E-003	2.226964933179261E-007	-2.3782176E-004	7.7404724E-003	2.5455973E-003	8.1483116E-003	1.8204405E+001	2.130669263359677E-007
1.7782927E+003	1.1705200E+002	4.2567669E+001	1.2455191E+002	-1.9984533E+001	3.497495856788009E+001	-7.1111915E-004	-9.9748431E-005	2.1025047E+000	2.4558167E-001	1.000000000000000E+000	11	1.3186064E-001	1.0586802E-003	1.852705017562484E-007	8.2845378E-005	7.5453273E-003	2.7439680E-003	8.0287810E-003	1.9984533E+001	-3.742599156167771E-008
1.5855076E+003	1.1756840E+002	4.7254982E+001	1.2670975E+002	-2.1896973E+001	3.573466740399454E+001	-7.0299295E-004	-6.1354389E-005	2.1242430E+000	2.9544681E-001	1.000000000000000E+000	11	1.3185394E-001	1.0405981E-003	1.026927855185527E-006	-3.1798857E-004	7.3226881E-003	2.9432522E-003	7.8920526E-003	2.1896973E+001	8.416573534292790E-007
1.4118373E+003	1.1814520E+002	5.2542423E+001	1.2930196E+002	-2.3976030E+001	3.649521045343135E+001	-7.0865889E-004	-9.7886688E-005	2.1454844E+000	3.5427085E-001	1.000000000000000E+000	11	1.3183300E-001	1.0195747E-003	5.143919122601801E-007	-1.5765498E-004	7.0665251E-003	3.1426779E-003	7.7338349E-003	2.3976030E+001	-5.125359429253472E-007
1.2587914E+003	1.1876702E+002	5.8364403E+001	1.3233295E+002	-2.6170391E+001	3.725496091617970E+001	-7.1091420E-004	-1.2062785E-004	2.1662986E+000	4.2138439E-001	1.000000000000000E+000	11	1.3180080E-001	9.9597871E-004	-3.663474016975670E-007	8.2845378E-005	6.7820330E-003	3.3328219E-003	7.5566974E-003	2.6170391E+001	-8.807393139577471E-007
1.1217948E+003	1.1946063E+002	6.4872101E+001	1.3593834E+002	-2.8503803E+001	3.801341004550341E+001	-7.0070050E-004	-8.9311041E-005	2.1869998E+000	4.9805894E-001	1.000000000000000E+000	11	1.3175952E-001	9.6925953E-004	4.043471803783581E-008	1.6301216E-004	6.4645885E-003	3.5105408E-003	7.3562763E-003	2.8503803E+001	4.067821197354028E-007
1.0003201E+003	1.2022076E+002	7.2080132E+001	1.4017339E+002	-3.0945415E+001	3.877267648162524E+001	-7.0819305E-004	-1.4653259E-004	2.2073214E+000	5.8366764E-001	1.000000000000000E+000	11	1.3171110E-001	9.3962980E-004	-7.080917285351865E-007	-3.9815533E-004	6.1185476E-003	3.6684654E-003	7.1340217E-003	3.0945415E+001	-7.485264465730224E-007
8.9142657E+002	1.2104610E+002	8.0166847E+001	1.4518568E+002	-3.3515854E+001	3.953141195760691E+001	-7.0968416E-004	-1.0944250E-004	2.2271001E+000	6.7901874E-001	1.000000000000000E+000	11	1.3165420E-001	9.0679881E-004	-1.329755429589568E-006	-3.9815533E-004	5.7425294E-003	3.8031829E-003	6.8877316E-003	3.3515854E+001	-6.216637010543814E-007
7.9423773E+002	1.2196914E+002	8.9200241E+001	1.5110643E+002	-3.6179295E+001	4.029092786039109E+001	-7.0306752E-004	-1.2211647E-004	2.2464855E+000	7.8283417E-001	1.000000000000000E+000	11	1.3159843E-001	8.7089889E-004	-7.494197267713186E-007	-3.9815533E-004	5.3417562E-003	3.9066109E-003	6.6178520E-003	3.6179295E+001	5.803357028182493E-007
7.0750946E+002	1.2298024E+002	9.9296684E+001	1.5806319E+002	-3.8918095E+001	4.105345901657711E+001	-7.0560235E-004	-1.4243358E-004	2.2654431E+000	8.9404863E-001	1.000000000000000E+000	11	1.3153386E-001	8.3216000E-004	-1.574836935580000E-006	-2.3782176E-004	4.9223653E-003	3.9744154E-003	6.3265837E-003	3.8918095E+001	-8.254172088086812E-007
6.3100964E+002	1.2408469E+002	1.1043102E+002	1.6610846E+002	-4.1667957E+001	4.181141083923285E+001	-7.1246119E-004	-1.3218352E-004	2.2839839E+000	1.0094661E+000	1.000000000000000E+000	11	1.3147065E-001	7.9147471E-004	-2.213823180526459E-006	-1.5765498E-004	4.4971225E-003	4.0022810E-003	6.0201632E-003	4.1667957E+001	-6.389862449464596E-007
5.6233929E+002	1.2532716E+002	1.2294437E+002	1.7556258E+002	-4.4450119E+001	4.256790223519783E+001	-7.0098002E-004	-1.5287356E-004	2.3020411E+000	1.1289285E+000	1.000000000000000E+000	11	1.3140273E-001	7.4846664E-004	-2.374437981726765E-006	2.6785929E-006	4.0661306E-003	3.9888234E-003	5.6959749E-003	4.4450119E+001	-1.606148012003055E-007
5.0144415E+002	1.2671333E+002	1.3684343E+002	1.8650038E+002	-4.7201145E+001	4.332517445783014E+001	-7.1490271E-004	-8.3539133E-005	2.3193891E+000	1.2487113E+000	1.000000000000000E+000	11	1.3134655E-001	7.0426962E-004	-2.778485192972666E-006	-3.1798857E-004	3.6430308E-003	3.9342730E-003	5.3619193E-003	4.7201145E+001	-4.040472112459006E-007
4.4685895E+002	1.2828610E+002	1.5244073E+002	1.9923730E+002	-4.9917797E+001	4.408192289379076E+001	-7.0651551E-004	-1.2585084E-004	2.3364077E+000	1.3677584E+000	1.000000000000000E+000	11	1.3128775E-001	6.5895164E-004	-2.590814785873792E-006	-2.3782176E-004	3.2317543E-003	3.8402521E-003	5.0191404E-003	4.9917797E+001	1.876704070988731E-007
3.9808920E+002	1.3004988E+002	1.6993709E+002	2.1398969E+002	-5.2573799E+001	4.484470549003163E+001	-7.0470764E-004	-1.4486736E-004	2.3526187E+000	1.4836867E+000	1.000000000000000E+000	11	1.3123181E-001	6.1326235E-004	-2.300562666742432E-006	-2.3782176E-004	2.8400391E-003	3.7110983E-003	4.6731224E-003	5.2573799E+001	2.902521191313605E-007
3.5465955E+002	1.3210141E+002	1.8947159E+002	2.3097676E+002	-5.5115421E+001	4.560494888611720E+001	-7.0701877E-004	-1.1895940E-004	2.3684509E+000	1.5937346E+000	1.000000000000000E+000	11	1.3118553E-001	5.6795985E-004	-2.467635719898276E-006	-3.1798857E-004	2.4761152E-003	3.5514648E-003	4.3294397E-003	5.5115421E+001	-1.670730531558444E-007
3.1631586E+002	1.3438901E+002	2.1105771E+002	2.5021144E+002	-5.7513435E+001	4.636192524209036E+001	-7.1076507E-004	-1.7580825E-004	2.3839543E+000	1.6962351E+000	1.000000000000000E+000	11	1.3113841E-001	5.2411039E-004	-2.267822484395664E-006	3.2334571E-004	2.1465919E-003	3.3712185E-003	3.9966200E-003	5.7513435E+001	1.998132355026124E-007
2.8189429E+002	1.3708519E+002	2.3534920E+002	2.7236298E+002	-5.9780239E+001	4.736740808983450E+001	-7.1527547E-004	-6.5406159E-005	2.3989496E+000	1.7912261E+000	1.000000000000000E+000	12	1.3301748E-001	4.8838311E-004	-2.271877831689279E-006	-3.1798857E-004	1.8479677E-003	3.1726090E-003	3.6715709E-003	5.9780239E+001	-4.055347293615508E-009
2.5104436E+002	1.4022937E+002	2.6263623E+002	2.9772818E+002	-6.1900906E+001	4.812391113908961E+001	-7.1039220E-004	-6.9172835E-005	2.4138763E+000	1.8783841E+000	1.000000000000000E+000	12	1.3265347E-001	4.4555232E-004	-1.982265252603409E-006	-3.9815533E-004	1.5819729E-003	2.9628847E-003	3.3587683E-003	6.1900906E+001	2.896125790858707E-007
2.2392513E+002	1.4386623E+002	2.9267432E+002	3.2612228E+002	-6.3823235E+001	4.888669746868254E+001	-7.1001943E-004	-6.2275292E-005	2.4284699E+000	1.9558744E+000	1.000000000000000E+000	12	1.3234796E-001	4.0582311E-004	-1.781923923232373E-006	-2.3782176E-004	1.3526888E-003	2.7518431E-003	3.0663344E-003	6.3823235E+001	2.003413293710359E-007
1.9955299E+002	1.4816443E+002	3.2643835E+002	3.5848947E+002	-6.5587570E+001	4.964821022478282E+001	-7.1318803E-004	-4.5681754E-005	2.4432094E+000	2.0258636E+000	1.000000000000000E+000	12	1.3208747E-001	3.6845563E-004	-2.165089374545561E-006	-1.5765498E-004	1.1528985E-003	2.5400859E-003	2.7894822E-003	6.5587570E+001	-3.831654513131880E-007
1.7778128E+002	1.5325169E+002	3.6422720E+002	3.9515509E+002	-6.7180664E+001	5.041623314129538E+001	-7.2273071E-004	5.5457502E-007	2.4578860E+000	2.0881963E+000	1.000000000000000E+000	12	1.3186735E-001	3.3371037E-004	-2.508211248816628E-006	-3.9815533E-004	9.8145427E-004	2.3325835E-003	2.5306519E-003	6.7180664E+001	-3.431218742710672E-007
1.5842838E+002	1.5927110E+002	4.0625018E+002	4.3635593E+002	-6.8592247E+001	5.118272101773618E+001	-7.1288983E-004	-6.4196749E-005	2.4728262E+000	2.1433790E+000	1.000000000000000E+000	12	1.3168697E-001	3.0178798E-004	-2.291891858992636E-006	-6.3865574E-004	8.3647942E-004	2.1335941E-003	2.2917071E-003	6.8592247E+001	2.163193898239922E-007
1.4131134E+002	1.6630981E+002	4.5270779E+002	4.8228964E+002	-6.9828346E+001	5.193587689349079E+001	-7.1061600E-004	-7.1637143E-005	2.4878557E+000	2.1920235E+000	1.000000000000000E+000	12	1.3153444E-001	2.7272914E-004	-2.539427459100504E-006	2.6785929E-006	7.1499328E-004	1.9462656E-003	2.0734428E-003	6.9828346E+001	-2.475356001078681E-007
1.2584569E+002	1.7481454E+002	5.0512500E+002	5.3451978E+002	-7.0910194E+001	5.269140255599632E+001	-7.0875208E-004	-7.4399162E-005	2.5037038E+000	2.2359037E+000	1.000000000000000E+000	12	1.3141406E-001	2.4585443E-004	-2.368840907027738E-006	1.6301216E-004	6.1185722E-004	1.7679555E-003	1.8708382E-003	7.0910194E+001	1.705865520727657E-007
1.1218996E+002	1.8486029E+002	5.6296930E+002	5.9254346E+002	-7.1821548E+001	5.343685477811960E+001	-7.1001955E-004	-7.0725633E-005	2.5198894E+000	2.2746284E+000	1.000000000000000E+000	12	1.3130942E-001	2.2160303E-004	-2.213055203751234E-006	8.2845378E-005	5.2650593E-004	1.6034089E-003	1.6876400E-003	7.1821548E+001	1.557857032765039E-007
1.0003201E+002	1.9682143E+002	6.2722095E+002	6.5737720E+002	-7.2578186E+001	5.419667225422745E+001	-7.1475352E-004	-4.9322392E-005	2.5366502E+000	2.3092577E+000	1.000000000000000E+000	12	1.3122809E-001	1.9962374E-004	-2.318959722298637E-006	2.6785929E-006	4.5545248E-004	1.4514140E-003	1.5211967E-003	7.2578186E+001	-1.059045185474029E-007
8.9115974E+001	2.1129269E+002	6.9918347E+002	7.3041229E+002	-7.3185226E+001	5.496373821065936E+001	-7.1533141E-004	-7.4175055E-005	2.5543089E+000	2.3405588E+000	1.000000000000000E+000	12	1.3116197E-001	1.7957251E-004	-2.497201594703559E-006	-7.7488192E-005	3.9604842E-004	1.3105543E-003	1.3690898E-003	7.3185226E+001	-1.782418724049221E-007
7.9415527E+001	2.2853816E+002	7.7881488E+002	8.1165405E+002	-7.3646019E+001	5.572821235356969E+001	-7.1028044E-004	-7.5462354E-005	2.5732410E+000	2.3692288E+000	1.000000000000000E+000	12	1.3110989E-001	1.6153420E-004	-2.318704210612446E-006	-1.5765498E-004	3.4690995E-004	1.1822036E-003	1.2320520E-003	7.3646019E+001	1.784973840911131E-007
7.0838745E+001	2.4921510E+002	8.6634222E+002	9.0147491E+002	-7.3951401E+001	5.647936718925484E+001	-7.1145472E-004	-6.9944123E-005	2.5933421E+000	2.3951430E+000	1.000000000000000E+000	12	1.3106346E-001	1.4538781E-004	-2.399005584908688E-006	2.6785929E-006	3.0666700E-004	1.0660613E-003	1.1092932E-003	7.3951401E+001	-8.030137429624216E-008
6.3082302E+001	2.7430042E+002	9.6473578E+002	1.0029735E+003	-7.4128120E+001	5.725982970638142E+001	-7.1037369E-004	-8.1615741E-005	2.6151958E+000	2.4195917E+000	1.000000000000000E+000	12	1.3102801E-001	1.3063956E-004	-2.465707846051727E-006	-2.3782176E-004	2.7267635E-004	9.5902395E-004	9.9703530E-004	7.4128120E+001	-6.670226114303864E-008
5.6241817E+001	3.0412274E+002	1.0725826E+003	1.1148651E+003	-7.4169716E+001	5.800432024835027E+001	-7.1259157E-004	-6.3885956E-005	2.6383357E+000	2.4420071E+000	1.000000000000000E+000	12	1.3100109E-001	1.1750398E-004	-2.491106850755588E-006	-2.3782176E-004	2.4468324E-004	8.6295098E-004	8.9696952E-004	7.4169716E+001	-2.539900470386150E-008
5.0144413E+001	3.3996280E+002	1.1913461E+003	1.2389028E+003	-7.4073364E+001	5.876116596432985E+001	-7.1637513E-004	-7.8409852E-005	2.6641557E+000	2.4635479E+000	1.000000000000000E+000	12	1.3097842E-001	1.0572130E-004	-2.522477417959130E-006	-3.1798857E-004	2.2149137E-004	7.7618181E-004	8.0716581E-004	7.4073364E+001	-3.137056720354148E-008
4.4671219E+001	3.8311145E+002	1.3231948E+003	1.3775409E+003	-7.3852409E+001	5.952524240061757E+001	-7.0884533E-004	-6.1816841E-005	2.6925795E+000	2.4843175E+000	1.000000000000000E+000	12	1.3095954E-001	9.5067626E-005	-2.568872150854077E-006	-3.1798857E-004	2.0189062E-004	6.9729215E-004	7.2593126E-004	7.3852409E+001	-4.639473289494668E-008
3.9808922E+001	4.3536987E+002	1.4675142E+003	1.5307334E+003	-7.3475868E+001	6.028770235686534E+001	-7.1000092E-004	-6.8696521E-005	2.7243156E+000	2.5039341E+000	1.000000000000000E+000	12	1.3094462E-001	8.5543717E-005	-2.458272766876083E-006	2.6785929E-006	1.8580581E-004	6.2630110E-004	6.5328163E-004	7.3475868E+001	1.105993839779934E-007
3.5465305E+001	4.9875208E+002	1.6259851E+003	1.7007590E+003	-7.2947212E+001	6.103714911240968E+001	-7.1130559E-004	-7.2816918E-005	2.7599413E+000	2.5225945E+000	1.000000000000000E+000	12	1.3092992E-001	7.6983226E-005	-2.643034380510572E-006	1.6301216E-004	1.7242457E-004	5.6212250E-004	5.8797275E-004	7.2947212E+001	-1.847616136344890E-007
3.1629551E+001	5.7362292E+002	1.7969867E+003	1.8863203E+003	-7.2296204E+001	6.176146605346003E+001	-7.1497733E-004	-7.5763142E-005	2.8001561E+000	2.5412130E+000	1.000000000000000E+000	12	1.3092282E-001	6.9406466E-005	-2.688269400494189E-006	2.4317895E-004	1.6121133E-004	5.0502631E-004	5.3013267E-004	7.2296204E+001	-4.523501998361710E-008
2.8170074E+001	6.6415448E+002	1.9850096E+003	2.0931709E+003	-7.1500534E+001	6.256677769178350E+001	-7.0681382E-004	-5.6038545E-005	2.8462267E+000	2.5596783E+000	1.000000000000000E+000	12	1.3091147E-001	6.2542182E-005	-2.544290539345739E-006	8.2845378E-005	1.5158619E-004	4.5305744E-004	4.7774409E-004	7.1500534E+001	1.439788611484498E-007
2.5104435E+001	7.7220441E+002	2.1871409E+003	2.3194578E+003	-7.0553619E+001	6.332291639436153E+001	-7.1087695E-004	-6.3589272E-005	2.8986311E+000	2.5773506E+000	1.000000000000000E+000	12	1.3090430E-001	5.6437460E-005	-2.515416314764378E-006	-2.3782176E-004	1.4353551E-004	4.0654046E-004	4.3113524E-004	7.0553619E+001	2.887422458136100E-008
2.2385387E+001	9.0059973E+002	2.4017874E+003	2.5650852E+003	-6.9445427E+001	6.400944093361613E+001	-7.1238668E-004	-7.6994365E-005	2.9601994E+000	2.5952935E+000	1.000000000000000E+000	12	1.3090426E-001	5.1033105E-005	-2.661479345013150E-006	-7.7488192E-005	1.3687630E-004	3.6503203E-004	3.8985061E-004	6.9445427E+001	-1.460630302487720E-007
1.9955299E+001	1.0533513E+003	2.6326160E+003	2.8355273E+003	-6.8192871E+001	6.502219663505093E+001	-7.0688839E-004	-2.4429944E-005	3.0295241E+000	2.6114500E+000	1.000000000000000E+000	13	1.3103965E-001	4.6213503E-005	-2.425569412485250E-006	-3.1798857E-004	1.3101033E-004	3.2743101E-004	3.5266808E-004	6.8192871E+001	2.359099325279003E-007
1.7796129E+001	1.2324653E+003	2.8729604E+003	3.1261594E+003	-6.6781250E+001	6.586652848849189E+001	-7.0315140E-004	-2.7579610E-005	3.1128983E+000	2.6290691E+000	1.000000000000000E+000	13	1.3100928E-001	4.1907420E-005	-2.450127202409931E-006	2.6785929E-006	1.2611086E-004	2.9397296E-004	3.1988131E-004	6.6781250E+001	-2.455778992468070E-008
1.5857576E+001	1.4440203E+003	3.1238760E+003	3.4414817E+003	-6.5191132E+001	6.658790916277212E+001	-7.0703751E-004	-2.5125189E-005	3.2128432E+000	2.6471965E+000	1.000000000000000E+000	13	1.3098092E-001	3.8059457E-005	-2.446102434782612E-006	2.4317895E-004	1.2192208E-004	2.6375632E-004	2.9057253E-004	6.5191132E+001	4.024767627318569E-009
1.4118974E+001	1.6920417E+003	3.3827075E+003	3.7822898E+003	-6.3425629E+001	6.739025610752287E+001	-7.0681388E-004	-3.1746902E-005	3.3323648E+000	2.6654580E+000	1.000000000000000E+000	13	1.3096319E-001	3.4625373E-005	-2.565844230224507E-006	-1.5765498E-004	1.1827732E-004	2.3645847E-004	2.6439011E-004	6.3425629E+001	-1.197417954418950E-007
1.2600808E+001	1.9725608E+003	3.6370862E+003	4.1375586E+003	-6.1526966E+001	6.828084340317582E+001	-7.0434436E-004	-2.6592092E-005	3.4727070E+000	2.6834099E+000	1.000000000000000E+000	13	1.3094726E-001	3.1648437E-005	-2.479676831556895E-006	-2.3782176E-004	1.1522377E-004	2.1245418E-004	2.4168842E-004	6.1526966E+001	8.616739866761254E-008
1.1224856E+001	2.2964749E+003	3.8910273E+003	4.5181733E+003	-5.9450996E+001	6.896493215564988E+001	-7.0973992E-004	-2.8856455E-005	3.6439722E+000	2.7025754E+000	1.000000000000000E+000	13	1.3093121E-001	2.8978793E-005	-2.599306502191818E-006	8.2845378E-005	1.1249571E-004	1.9060685E-004	2.2132839E-004	5.9450996E+001	-1.196296706349236E-007
1.0003201E+001	2.6619197E+003	4.1349404E+003	4.9176772E+003	-5.7228085E+001	6.972568747181504E+001	-7.0364529E-004	-2.6707776E-005	3.8477948E+000	2.7203851E+000	1.000000000000000E+000	13	1.3092551E-001	2.6623444E-005	-2.379715415784580E-006	-2.3782176E-004	1.1007150E-004	1.7098154E-004	2.0334803E-004	5.7228085E+001	2.195910864072378E-007
8.9183798E+000	3.0640750E+003	4.3558550E+003	5.3256011E+003	-5.4875980E+001	7.057003615191206E+001	-7.0359878E-004	-2.4008401E-005	4.0969510E+000	2.7407558E+000	1.000000000000000E+000	13	1.3091597E-001	2.4582385E-005	-2.609551857390367E-006	-7.7488192E-005	1.0803442E-004	1.5358052E-004	1.8777224E-004	5.4875980E+001	-2.298364416057868E-007
7.9395342E+000	3.5119353E+003	4.5547109E+003	5.7514419E+003	-5.2365780E+001	7.150870910316735E+001	-7.0297439E-004	-2.5981113E-005	4.4011312E+000	2.7601485E+000	1.000000000000000E+000	13	1.3090983E-001	2.2761220E-005	-2.381060835298582E-006	-7.1882247E-004	1.0616786E-004	1.3769158E-004	1.7386944E-004	5.2365780E+001	2.284910220917848E-007
7.0765405E+000	3.9877502E+003	4.7129414E+003	6.1736514E+003	-4.9764515E+001	7.206704331634683E+001	-7.1641250E-004	-3.3998651E-005	4.7720733E+000	2.7810383E+000	1.000000000000000E+000	13	1.3090402E-001	2.1203663E-005	-2.385093981871427E-006	8.2845378E-005	1.0462700E-004	1.2365391E-004	1.6197869E-004	4.9764515E+001	-4.033146572845041E-009
6.3105822E+000	4.5308877E+003	4.8462251E+003	6.6343682E+003	-4.6926041E+001	7.268718966576853E+001	-7.0517359E-004	-9.4482421E-005	5.2041178E+000	2.7768674E+000	1.000000000000000E+000	13	1.3089705E-001	1.9730145E-005	-2.421921899748466E-006	-1.5765498E-004	1.0293999E-004	1.1010434E-004	1.5073025E-004	4.6926041E+001	-3.682791787703841E-008
5.6205034E+000	5.0315269E+003	4.8962646E+003	7.0206602E+003	-4.4219418E+001	7.337366335175466E+001	-7.0675794E-004	-7.1134302E-005	5.7833576E+000	2.8128974E+000	1.000000000000000E+000	13	1.3089417E-001	1.8644139E-005	-2.557292695876943E-006	-7.7488192E-005	1.0208076E-004	9.9336532E-005	1.4243675E-004	4.4219418E+001	-1.353707961284775E-007
5.0144415E+000	5.5445205E+003	4.9139600E+003	7.4086914E+003	-4.1549709E+001	7.413115994769032E+001	-7.0316077E-004	-6.2225947E-005	6.4590101E+000	2.8414903E+000	1.000000000000000E+000	13	1.3089114E-001	1.7667242E-005	-2.704594701550402E-006	-2.3782176E-004	1.0101387E-004	8.9525878E-005	1.3497661E-004	4.1549709E+001	-1.473020056734592E-007
4.4693937E+000	6.0864287E+003	4.8932300E+003	7.8095015E+003	-3.8797802E+001	7.497253444095259E+001	-7.0963753E-004	3.8189855E-006	7.2773938E+000	2.8570676E+000	1.000000000000000E+000	13	1.3089028E-001	1.6760388E-005	-2.586679085260585E-006	2.4317895E-004	9.9796634E-005	8.0232254E-005	1.2804914E-004	3.8797802E+001	1.179156162898179E-007
3.9778514E+000	6.5943164E+003	4.7993657E+003	8.1559131E+003	-3.6047256E+001	7.590918232550030E+001	-7.0734497E-004	-2.1690391E-006	8.3365765E+000	2.8867571E+000	1.000000000000000E+000	13	1.3088816E-001	1.6048254E-005	-2.375927597986005E-006	8.2845378E-005	9.9134450E-005	7.2150397E-005	1.2261044E-004	3.6047256E+001	2.107514872745798E-007
3.5511365E+000	7.0976401E+003	4.6793765E+003	8.5013564E+003	-3.3396317E+001	7.695039752157754E+001	-7.0843537E-004	-5.3354925E-005	9.5777788E+000	2.9017787E+000	1.000000000000000E+000	13	1.3089034E-001	1.5396407E-005	-2.627558507701293E-006	-1.5765498E-004	9.8205892E-005	6.4745793E-005	1.1762829E-004	3.3396317E+001	-2.516309097152885E-007
3.1603966E+000	7.5583315E+003	4.5265781E+003	8.8101240E+003	-3.0916796E+001	7.811225445676246E+001	-7.0614286E-004	-1.8607612E-005	1.1125218E+001	2.9368687E+000	1.000000000000000E+000	13	1.3089198E-001	1.4856996E-005	-2.715660832943475E-006	-3.1798857E-004	9.7378237E-005	5.8318448E-005	1.1350578E-004	3.0916796E+001	-8.810232524218188E-008
2.8183618E+000	7.9859146E+003	4.3198315E+003	9.0794150E+003	-2.8410345E+001	7.940764502502134E+001	-7.0219435E-004	-1.6537013E-005	1.3072436E+001	2.9592009E+000	1.000000000000000E+000	13	1.3088763E-001	1.4415866E-005	-2.345838739563912E-006	3.2334571E-004	9.6874377E-005	5.2402389E-005	1.1013926E-004	2.8410345E+001	3.698220933795633E-007
2.5136740E+000	8.3912285E+003	4.1037544E+003	9.3409590E+003	-2.6061079E+001	8.085166770693468E+001	-6.9256464E-004	-4.2493695E-005	1.5428718E+001	2.9778967E+000	1.000000000000000E+000	13	1.3088742E-001	1.4012203E-005	-2.754284309554742E-006	-2.3782176E-004	9.6170668E-005	4.7032543E-005	1.0705539E-004	2.6061079E+001	-4.084455699908301E-007
2.2398219E+000	8.7382217E+003	3.8730464E+003	9.5580859E+003	-2.3904381E+001	8.246631869024714E+001	-6.9865497E-004	-1.6284106E-005	1.8346531E+001	3.0124335E+000	1.000000000000000E+000	13	1.3088995E-001	1.3694159E-005	-2.602091322790721E-006	-3.1798857E-004	9.5649171E-005	4.2394629E-005	1.0462346E-004	2.3904381E+001	1.521929867640209E-007
1.9970604E+000	9.0481035E+003	3.6275073E+003	9.7481787E+003	-2.1846519E+001	8.426969514928351E+001	-6.9900905E-004	-1.9477993E-005	2.1969522E+001	3.0422175E+000	1.000000000000000E+000	13	1.3088568E-001	1.3426680E-005	-2.427804541384515E-006	-6.3865574E-004	9.5216150E-005	3.8173446E-005	1.0258327E-004	2.1846519E+001	1.742867814062065E-007
1.7796129E+000	9.3246797E+003	3.3749102E+003	9.9166357E+003	-1.9896868E+001	8.628785967180738E+001	-7.0428679E-004	-2.4088200E-005	2.6499176E+001	3.0692203E+000	1.000000000000000E+000	13	1.3088702E-001	1.3198732E-005	-2.942416906874832E-006	2.6785929E-006	9.4821138E-005	3.4318909E-005	1.0084065E-004	1.9896868E+001	-5.146123654903173E-007
1.5846854E+000	9.5685645E+003	3.1222078E+003	1.0065068E+004	-1.8071426E+001	8.854702135242405E+001	-6.9958623E-004	-1.8944473E-005	3.2167351E+001	3.0953190E+000	1.000000000000000E+000	13	1.3088515E-001	1.3003902E-005	-2.257963142095087E-006	-1.5765498E-004	9.4452465E-005	3.0819698E-005	9.9353521E-005	1.8071426E+001	6.844537647797450E-007
1.4122382E+000	9.7767334E+003	2.8849934E+003	1.0193513E+004	-1.6440680E+001	9.107620136588230E+001	-6.9778325E-004	-1.9312440E-005	3.9063156E+001	3.1290264E+000	1.000000000000000E+000	13	1.3088563E-001	1.2840091E-005	-3.008330057476681E-006	5.6384609E-004	9.4090559E-005	2.7764963E-005	9.8101613E-005	1.6440680E+001	-7.503669153815938E-007
1.2596743E+000	9.9597803E+003	2.6554238E+003	1.0307691E+004	-1.4928637E+001	9.390495008692960E+001	-6.9409917E-004	-1.6743295E-005	4.7580391E+001	3.1577146E+000	1.000000000000000E+000	13	1.3088740E-001	1.2698033E-005	-2.387612593566082E-006	2.6785929E-006	9.3740433E-005	2.4992576E-005	9.7014934E-005	1.4928637E+001	6.207174639105991E-007
1.1224856E+000	1.0117175E+004	2.4400203E+003	1.0407254E+004	-1.3559429E+001	9.707300455740187E+001	-7.0217520E-004	-1.5038096E-005	5.8109333E+001	3.1941879E+000	1.000000000000000E+000	13	1.3088763E-001	1.2576576E-005	-2.833396839155878E-006	-7.7488192E-005	9.3408627E-005	2.2527924E-005	9.6086827E-005	1.3559429E+001	-4.457842455897966E-007
1.0000638E+000	1.0248114E+004	2.2284641E+003	1.0487606E+004	-1.2268047E+001	1.006221438726352E+002	-6.9603138E-004	-1.8765097E-005	7.1414566E+001	3.2243733E+000	1.000000000000000E+000	13	1.3088731E-001	1.2480189E-005	-2.704498590118507E-006	-2.3782176E-004	9.3173236E-005	2.0260626E-005	9.5350639E-005	1.2268047E+001	1.288982490373707E-007