EC-Lab ASCII FILE
Nb header lines : 60                          

Potentio Electrochemical Impedance Spectroscopy

Run on channel : 1 (SN 20909)
User : 
CE vs. WE compliance from -10 V to 10 V
Electrode connection : standard
Ewe ctrl range : min = -10.00 V, max = 10.00 V
Acquisition started on : 02/20/2020 14:53:05
Technique started on : 02/20/2020 14:53:06
Saved on :
	File : DE_65_1_60.mpr
	Directory : P:\Chemistry\Data\VMP3\Kyler\DOE\DE_65\60C\
	Host : 10.0.4.64
Device : VMP3 (SN 1432)
Address : USB
EC-Lab for windows v11.33 (software)
Internet server v11.32 (firmware)
Command interpretor v11.33 (firmware)
Electrode material : 
Initial state : 
Electrolyte : 
Comments : 
Electrode surface area : 0.001 cm²
Characteristic mass : 0.001 g
Equivalent Weight : 0.000 g/eq.
Density : 0.000 g/cm3
Record Analogic IN 1
Cycle Definition : Charge/Discharge alternance
Mode                Single sine         
E (V)               0.0000              
vs.                 Eoc                 
tE (h:m:s)          0:00:0.0000         
record              0                   
dI                  1.000               
unit dI             mA                  
dt (s)              0.000               
fi                  1.000               
unit fi             MHz                 
ff                  1.000               
unit ff             Hz                  
Nd                  20                  
Points              per decade          
spacing             Logarithmic         
Va (mV)             128.0               
pw                  0.50                
Na                  3                   
corr                0                   
E range min (V)     -10.000             
E range max (V)     10.000              
I Range             Auto                
Bandwidth           5                   
nc cycles           0                   
goto Ns'            0                   
nr cycles           0                   
inc. cycle          1                   

freq/Hz	Re(Z)/Ohm	-Im(Z)/Ohm	|Z|/Ohm	Phase(Z)/deg	time/s	<Ewe>/V	<I>/mA	Cs/µF	Cp/µF	cycle number	I Range	|Ewe|/V	|I|/A	(Q-Qo)/mA.h	Analog IN 1/V	Re(Y)/Ohm-1	Im(Y)/Ohm-1	|Y|/Ohm-1	Phase(Y)/deg	dq/mA.h	
1.0000186E+006	7.6227539E+001	7.1328339E+001	1.0439526E+002	-4.3098347E+001	1.645494718133705E+000	-3.5173339E-001	3.9483741E-004	2.2312589E-003	1.0416280E-003	1.000000000000000E+000	11	5.8269023E-004	5.5815776E-006	2.540200773312083E-007	-5.8283542E-005	6.9943983E-003	6.5448638E-003	9.5789796E-003	4.3098347E+001	2.540200773312083E-007
8.9124669E+005	8.4589928E+001	6.6129036E+001	1.0737088E+002	-3.8016880E+001	2.241477999748895E+000	-3.5122311E-001	3.0749416E-004	2.7004119E-003	1.0243335E-003	1.000000000000000E+000	11	1.0978256E-003	1.0224612E-005	3.447055306320787E-007	-1.3848604E-004	7.3374584E-003	5.7361331E-003	9.3135126E-003	3.8016880E+001	9.068545330087044E-008
7.9433269E+005	9.2230370E+001	6.2111069E+001	1.1119454E+002	-3.3957664E+001	2.838472454779549E+000	-3.5076052E-001	3.9819756E-004	3.2258837E-003	1.0065138E-003	1.000000000000000E+000	11	1.4889585E-003	1.3390571E-005	4.260471968390347E-007	-2.9889104E-004	7.4594538E-003	5.0234497E-003	8.9932475E-003	3.3957664E+001	8.134166620695595E-008
7.0794981E+005	9.9067581E+001	5.6831657E+001	1.1421131E+002	-2.9841408E+001	3.433481629734160E+000	-3.5034257E-001	2.7651433E-004	3.9557363E-003	9.7946683E-004	1.000000000000000E+000	11	1.4734248E-003	1.2900866E-005	4.271953681883234E-007	-5.3949852E-004	7.5947470E-003	4.3568448E-003	8.7556997E-003	2.9841408E+001	1.148171349288769E-009
6.3095681E+005	1.0502644E+002	5.4258942E+001	1.1821416E+002	-2.7321857E+001	4.029496351344278E+000	-3.4994042E-001	4.6053415E-004	4.6488894E-003	9.7938359E-004	1.000000000000000E+000	11	7.2362815E-004	6.1213323E-006	3.510387907032661E-007	-2.1868854E-004	7.5155310E-003	3.8826864E-003	8.4592234E-003	2.7321857E+001	-7.615657748505732E-008
5.6234225E+005	1.1022949E+002	5.1010826E+001	1.2146046E+002	-2.4833252E+001	4.625483472977066E+000	-3.4961674E-001	3.4034369E-004	5.5482634E-003	9.7861513E-004	1.000000000000000E+000	11	1.0484741E-003	8.6322252E-006	2.204528679364254E-007	-2.9889104E-004	7.4718464E-003	3.4577411E-003	8.2331318E-003	2.4833252E+001	-1.305859227668407E-007
5.0120619E+005	1.1482838E+002	4.6991856E+001	1.2407172E+002	-2.2256124E+001	5.222485181380762E+000	-3.4932417E-001	3.5732886E-004	6.7574233E-003	9.6935028E-004	1.000000000000000E+000	11	4.0300451E-003	3.2481577E-005	6.946608030733235E-007	1.0212145E-004	7.4593956E-003	3.0526503E-003	8.0598546E-003	2.2256124E+001	4.742079351368981E-007
4.4668572E+005	1.1864771E+002	4.3606083E+001	1.2640716E+002	-2.0179678E+001	5.817498356307624E+000	-3.4907237E-001	4.2153150E-004	8.1709204E-003	9.7234815E-004	1.000000000000000E+000	11	8.2817022E-003	6.5516084E-005	1.118140586185998E-006	-6.1970105E-004	7.4253348E-003	2.7290015E-003	7.9109445E-003	2.0179678E+001	4.234797831126747E-007
3.9810347E+005	1.2205293E+002	4.0571751E+001	1.2861954E+002	-1.8387381E+001	6.413485797907924E+000	-3.4891796E-001	3.2691038E-004	9.8537244E-003	9.8046940E-004	1.000000000000000E+000	11	1.3819557E-002	1.0744524E-004	1.157645649662906E-006	-1.3848604E-004	7.3779267E-003	2.4525048E-003	7.7748685E-003	1.8387381E+001	3.950506347690755E-008
3.5480997E+005	1.2501739E+002	3.7407623E+001	1.3049397E+002	-1.6658201E+001	7.009483026253292E+000	-3.4879619E-001	4.1201460E-004	1.1991243E-002	9.8537956E-004	1.000000000000000E+000	11	2.0638769E-002	1.5815880E-004	1.308204088680011E-006	-6.9990352E-004	7.3415795E-003	2.1967427E-003	7.6631890E-003	1.6658201E+001	1.505584390171054E-007
3.1622997E+005	1.2755050E+002	3.4380680E+001	1.3210284E+002	-1.5085308E+001	7.604497827851446E+000	-3.4870112E-001	4.5830247E-004	1.4638704E-002	9.9153316E-004	1.000000000000000E+000	11	2.8765708E-002	2.1775237E-004	1.059020068074258E-006	-2.1868854E-004	7.3089977E-003	1.9701084E-003	7.5698597E-003	1.5085308E+001	-2.491840206057532E-007
2.8183453E+005	1.2964168E+002	3.1545149E+001	1.3342436E+002	-1.3675767E+001	8.200476202793652E+000	-3.4867665E-001	3.4072562E-004	1.7901661E-002	1.0006638E-003	1.000000000000000E+000	11	3.8099028E-002	2.8554775E-004	1.325972156846344E-006	-5.8283542E-005	7.2823972E-003	1.7719943E-003	7.4948831E-003	1.3675767E+001	2.669520887720864E-007
2.5118764E+005	1.3137086E+002	2.8842758E+001	1.3449985E+002	-1.2382941E+001	8.796481057797791E+000	-3.4866381E-001	1.3188452E-004	2.1967724E-002	1.0102179E-003	1.000000000000000E+000	11	4.8707742E-002	3.6213978E-004	6.565274036197984E-007	-5.8283542E-005	7.2619868E-003	1.5943849E-003	7.4349525E-003	1.2382941E+001	-6.694447532265460E-007
2.2387173E+005	1.3275754E+002	2.6429506E+001	1.3536278E+002	-1.1259295E+001	9.392489619407570E+000	-3.4865251E-001	4.9769042E-006	2.6898731E-002	1.0254427E-003	1.000000000000000E+000	11	6.0393337E-002	4.4615913E-004	2.788971153574191E-007	-5.8283542E-005	7.2453716E-003	1.4424160E-003	7.3875552E-003	1.1259295E+001	-3.776302882623794E-007
1.9954350E+005	1.3392990E+002	2.4138414E+001	1.3608777E+002	-1.0216832E+001	9.989484287769301E+000	-3.4860095E-001	1.5559167E-004	3.3042569E-002	1.0395685E-003	1.000000000000000E+000	11	7.3274441E-002	5.3843518E-004	8.998223515678142E-007	-3.7909354E-004	7.2316825E-003	1.3033785E-003	7.3481989E-003	1.0216832E+001	6.209252362103951E-007
1.7783180E+005	1.3490149E+002	2.2115543E+001	1.3670227E+002	-9.3101654E+000	1.058548724939465E+001	-3.4853184E-001	4.7791025E-004	4.0468127E-002	1.0591486E-003	1.000000000000000E+000	11	8.7196767E-002	6.3785893E-004	1.406643677682951E-006	2.1918953E-005	7.2188047E-003	1.1834397E-003	7.3151672E-003	9.3101654E+000	5.068213261151364E-007
1.5848613E+005	1.3573558E+002	2.0285501E+001	1.3724303E+002	-8.4998693E+000	1.118048242435907E+001	-3.4856761E-001	2.6076557E-005	4.9504321E-002	1.0815187E-003	1.000000000000000E+000	11	1.0205556E-001	7.4361201E-004	1.119935409784982E-006	1.8232394E-004	7.2063128E-003	1.0769739E-003	7.2863447E-003	8.4998693E+000	-2.867082678979690E-007
1.4125594E+005	1.3646657E+002	1.8655403E+001	1.3773579E+002	-7.7842598E+000	1.164047737952205E+001	-3.4854525E-001	1.3544457E-004	6.0396083E-002	1.1079608E-003	1.000000000000000E+000	11	1.1788995E-001	8.5591368E-004	5.044558244163555E-007	1.0212145E-004	7.1933740E-003	9.8335650E-004	7.2602769E-003	7.7842598E+000	-6.154795853686260E-007
1.2590930E+005	1.3712538E+002	1.7193056E+001	1.3819904E+002	-7.1465659E+000	1.210048089470365E+001	-3.4847534E-001	5.0814892E-004	7.3520638E-002	1.1379034E-003	1.000000000000000E+000	11	1.3475516E-001	9.7508036E-004	7.930682552475143E-007	2.6252642E-004	7.1797254E-003	9.0020843E-004	7.2359405E-003	7.1465659E+000	2.886124308311588E-007
1.1220494E+005	1.3771742E+002	1.5871147E+001	1.3862894E+002	-6.5740099E+000	1.269547337628319E+001	-3.4850347E-001	-2.4584876E-004	8.9371666E-002	1.1714094E-003	1.000000000000000E+000	11	1.3000992E-001	9.3782670E-004	1.271914528199179E-006	2.1918953E-005	7.1660709E-003	8.2584872E-004	7.2135013E-003	6.5740099E+000	4.788462729516647E-007
1.0000371E+005	1.3822017E+002	1.4693892E+001	1.3899901E+002	-6.0682015E+000	1.329148409797926E+001	-3.4841168E-001	2.3809157E-004	1.0830964E-001	1.2103680E-003	1.000000000000000E+000	11	1.3001207E-001	9.3534525E-004	7.729259507725349E-007	2.1918953E-005	7.1539846E-003	7.6052494E-004	7.1942960E-003	6.0682015E+000	-4.989885774266441E-007
8.9129305E+004	1.3868791E+002	1.3632336E+001	1.3935629E+002	-5.6138577E+000	1.388649593954324E+001	-3.4835964E-001	5.0087000E-004	1.3098735E-001	1.2534780E-003	1.000000000000000E+000	11	1.2968944E-001	9.3063206E-004	1.345546380947174E-006	3.4272892E-004	7.1414341E-003	7.0196763E-004	7.1758511E-003	5.6138577E+000	5.726204301746394E-007
7.9433273E+004	1.3908995E+002	1.2694921E+001	1.3966809E+002	-5.2150116E+000	1.448148882112582E+001	-3.4831372E-001	5.1897310E-004	1.5782930E-001	1.3039270E-003	1.000000000000000E+000	11	1.2965542E-001	9.2831097E-004	1.412827660751443E-006	-5.8283542E-005	7.1301940E-003	6.5078214E-004	7.1598315E-003	5.2150116E+000	6.728127980426915E-008
7.0794977E+004	1.3944041E+002	1.1879504E+001	1.3994553E+002	-4.8695059E+000	1.507749794280971E+001	-3.4828976E-001	6.0837041E-004	1.8924280E-001	1.3636344E-003	1.000000000000000E+000	11	1.2952387E-001	9.2553062E-004	-3.608176917431491E-007	-2.1868854E-004	7.1198461E-003	6.0656911E-004	7.1456376E-003	4.8695059E+000	-1.773645352494593E-006
6.3093828E+004	1.3974855E+002	1.1164125E+001	1.4019377E+002	-4.5675015E+000	1.567349066442694E+001	-3.4831089E-001	3.6817475E-004	2.2594804E-001	1.4328493E-003	1.000000000000000E+000	11	1.2958002E-001	9.2429231E-004	-5.891889226414706E-007	1.8232394E-004	7.1103317E-003	5.6802476E-004	7.1329847E-003	4.5675015E+000	-2.283712308983215E-007
5.6237012E+004	1.4002097E+002	1.0554899E+001	1.4041823E+002	-4.3108511E+000	1.627049613275449E+001	-3.4828219E-001	5.0740241E-004	2.6812902E-001	1.5149735E-003	1.000000000000000E+000	11	1.2929541E-001	9.2078792E-004	1.111185656376822E-006	-1.3848604E-004	7.1014347E-003	5.3531211E-004	7.1215825E-003	4.3108511E+000	1.700374579018292E-006
5.0122477E+004	1.4027206E+002	1.0057077E+001	1.4063213E+002	-4.1009150E+000	1.673049023465137E+001	-3.4828880E-001	5.5480539E-004	3.1572998E-001	1.6146943E-003	1.000000000000000E+000	11	1.4027040E-001	9.9742785E-004	1.284852911021113E-006	3.4272892E-004	7.0925448E-003	5.0851377E-004	7.1107508E-003	4.1009150E+000	1.736672546442909E-007
4.4666715E+004	1.4049728E+002	9.6548529E+000	1.4082863E+002	-3.9311366E+000	1.732547375620925E+001	-3.4825194E-001	5.6843075E-004	3.6905447E-001	1.7346021E-003	1.000000000000000E+000	11	1.3034502E-001	9.2555763E-004	3.084782886148888E-006	-3.7909354E-004	7.0841219E-003	4.8681480E-004	7.1008289E-003	3.9311366E+000	1.799929975127775E-006
3.9814063E+004	1.4070724E+002	9.3499699E+000	1.4101755E+002	-3.8017051E+000	1.778547633808921E+001	-3.4827581E-001	4.2938598E-004	4.2753676E-001	1.8795226E-003	1.000000000000000E+000	11	1.3951918E-001	9.8937459E-004	3.893231202836735E-006	5.0313392E-004	7.0757116E-003	4.7017974E-004	7.0913159E-003	3.8017051E+000	8.084483166878472E-007
3.5480996E+004	1.4090033E+002	9.1478233E+000	1.4119698E+002	-3.7146621E+000	1.838148124635336E+001	-3.4828436E-001	2.2726711E-004	4.9035043E-001	2.0582178E-003	1.000000000000000E+000	11	1.3004564E-001	9.2102279E-004	1.801113530044151E-006	4.2293142E-004	7.0674252E-003	4.5884604E-004	7.0823045E-003	3.7146621E+000	-2.092117672792584E-006
3.1621143E+004	1.4109175E+002	9.0216961E+000	1.4137988E+002	-3.6586292E+000	1.884148510821979E+001	-3.4824747E-001	5.0030951E-004	5.5789745E-001	2.2717237E-003	1.000000000000000E+000	11	1.3731104E-001	9.7122049E-004	9.428343321501921E-007	-2.9889104E-004	7.0587266E-003	4.5134951E-004	7.0731421E-003	3.6586292E+000	-8.582791978939592E-007
2.8188096E+004	1.4126151E+002	8.9969444E+000	1.4154773E+002	-3.6442454E+000	1.943749452321208E+001	-3.4824800E-001	4.1165954E-004	6.2756592E-001	2.5353832E-003	1.000000000000000E+000	11	1.2954476E-001	9.1520202E-004	2.273908392838065E-006	-5.8283542E-005	7.0504691E-003	4.4904431E-004	7.0647546E-003	3.6442454E+000	1.331074060687873E-006
2.5116910E+004	1.4143701E+002	9.0650406E+000	1.4172722E+002	-3.6672091E+000	1.989748609173694E+001	-3.4824708E-001	4.5253264E-004	6.9901121E-001	2.8596781E-003	1.000000000000000E+000	11	1.3500294E-001	9.5255481E-004	2.063837218397263E-006	-5.8283542E-005	7.0413603E-003	4.5129782E-004	7.0558079E-003	3.6672091E+000	-2.100711744408020E-007
2.2389027E+004	1.4160664E+002	9.2194653E+000	1.4190645E+002	-3.7250512E+000	2.035749430026044E+001	-3.4824201E-001	4.5495539E-004	7.7104402E-001	3.2545158E-003	1.000000000000000E+000	11	1.3984661E-001	9.8548457E-004	2.267914970691385E-006	-6.9990352E-004	7.0320079E-003	4.5782709E-004	7.0468960E-003	3.7250512E+000	2.040777522941225E-007
1.9948783E+004	1.4178572E+002	9.4716959E+000	1.4210173E+002	-3.8218455E+000	2.095347854189458E+001	-3.4823981E-001	3.8926382E-004	8.4231782E-001	3.7422494E-003	1.000000000000000E+000	11	1.2969808E-001	9.1271295E-004	2.508130211138754E-006	1.8232394E-004	7.0215622E-003	4.6906067E-004	7.0372121E-003	3.8218455E+000	2.402152404473681E-007
1.7786895E+004	1.4195438E+002	9.8199253E+000	1.4229362E+002	-3.9572246E+000	2.141347781705554E+001	-3.4824479E-001	3.9131663E-004	9.1119599E-001	4.3396759E-003	1.000000000000000E+000	11	1.3295284E-001	9.3435560E-004	1.807914629811219E-006	2.1918953E-005	7.0109670E-003	4.8499505E-004	7.0277220E-003	3.9572246E+000	-7.002155813275345E-007
1.5847686E+004	1.4213855E+002	1.0275398E+001	1.4250948E+002	-4.1348004E+000	2.187347525221412E+001	-3.4823051E-001	4.0942041E-004	9.7736245E-001	5.0811903E-003	1.000000000000000E+000	11	1.3573146E-001	9.5243816E-004	1.213736752987340E-006	-5.8283542E-005	6.9988132E-003	5.0595414E-004	7.0170774E-003	4.1348004E+000	-5.941778768238793E-007
1.4121879E+004	1.4232864E+002	1.0825218E+001	1.4273972E+002	-4.3494229E+000	2.233247708735871E+001	-3.4823290E-001	4.1539271E-004	1.0410964E+000	5.9879017E-003	1.000000000000000E+000	11	1.3806897E-001	9.6727791E-004	7.372495362342306E-007	-1.3848604E-004	6.9855824E-003	5.3130876E-004	7.0057586E-003	4.3494229E+000	-4.764872167531092E-007
1.2590932E+004	1.4251979E+002	1.1483462E+001	1.4298167E+002	-4.6066275E+000	2.279247825589846E+001	-3.4824306E-001	3.5063061E-004	1.1007519E+000	7.1002617E-003	1.000000000000000E+000	11	1.3998640E-001	9.7905134E-004	4.315932305307797E-007	-3.7909354E-004	6.9713104E-003	5.6170992E-004	6.9939033E-003	4.6066275E+000	-3.056563057034509E-007
1.1217711E+004	1.4271281E+002	1.2267183E+001	1.4323907E+002	-4.9129043E+000	2.338849017754546E+001	-3.4822878E-001	4.2565717E-004	1.1565677E+000	8.4827710E-003	1.000000000000000E+000	11	1.2932299E-001	9.0284715E-004	4.362004402596035E-007	1.0212145E-004	6.9556860E-003	5.9789076E-004	6.9813351E-003	4.9129043E+000	4.607209728823808E-009
1.0002229E+004	1.4293489E+002	1.3175756E+001	1.4354088E+002	-5.2666488E+000	2.384848102604155E+001	-3.4823903E-001	3.8366509E-004	1.2076685E+000	1.0175310E-002	1.000000000000000E+000	11	1.3048433E-001	9.0903952E-004	1.178830797825867E-006	-5.8283542E-005	6.9372454E-003	6.3947617E-004	6.9666565E-003	5.2666488E+000	7.426303575662637E-007
8.9149297E+003	1.4315930E+002	1.4221318E+001	1.4386394E+002	-5.6730995E+000	2.433091467566555E+001	-3.4820703E-001	5.4435508E-004	1.2553428E+000	1.2266994E-002	1.000000000000000E+000	11	1.3144256E-001	9.1365888E-004	9.913430173374865E-007	-5.8283542E-005	6.9169668E-003	6.8712531E-004	6.9510122E-003	5.6730995E+000	-1.874877804883806E-007
7.9439976E+003	1.4339967E+002	1.5414515E+001	1.4422577E+002	-6.1353583E+000	2.485700126065058E+001	-3.4820497E-001	5.7720242E-004	1.2997241E+000	1.4846536E-002	1.000000000000000E+000	11	1.3219662E-001	9.1659505E-004	1.855397098238326E-006	-1.3848604E-004	6.8938592E-003	7.4104423E-004	6.9335736E-003	6.1353583E+000	8.640540809008396E-007
7.0822334E+003	1.4365178E+002	1.6755289E+001	1.4462563E+002	-6.6528182E+000	2.543386856804136E+001	-3.4819141E-001	5.7720178E-004	1.3412137E+000	1.8001609E-002	1.000000000000000E+000	11	1.3279586E-001	9.1820420E-004	2.339729221728299E-006	-2.9889104E-004	6.8678451E-003	8.0105336E-004	6.9144038E-003	6.6528182E+000	4.843321234899729E-007
6.3077344E+003	1.4392474E+002	1.8292667E+001	1.4508258E+002	-7.2433901E+000	2.606853283816599E+001	-3.4819147E-001	4.3554881E-004	1.3793348E+000	2.1927707E-002	1.000000000000000E+000	11	1.3329732E-001	9.1876864E-004	1.680061287770311E-006	2.1918953E-005	6.8376195E-003	8.6905347E-004	6.8926262E-003	7.2433901E+000	-6.596679339579877E-007
5.6210552E+003	1.4421774E+002	2.0017738E+001	1.4560037E+002	-7.9022889E+000	2.676928079142817E+001	-3.4814930E-001	2.7448466E-004	1.4144489E+000	2.6735745E-002	1.000000000000000E+000	11	1.3367513E-001	9.1809611E-004	2.326201286441574E-006	2.1918953E-005	6.8028946E-003	9.4425661E-004	6.8681142E-003	7.9022889E+000	6.461399986712623E-007
5.0116035E+003	1.4452719E+002	2.1943880E+001	1.4618359E+002	-8.6334047E+000	2.752969874761038E+001	-3.4817672E-001	4.5999710E-004	1.4472048E+000	3.2610659E-002	1.000000000000000E+000	11	1.3397714E-001	9.1649918E-004	2.774714682257480E-006	-1.3848604E-004	6.7632007E-003	1.0268716E-003	6.8407129E-003	8.6334047E+000	4.485133958159066E-007
4.4664292E+003	1.4485680E+002	2.4113873E+001	1.4685016E+002	-9.4511900E+000	2.828967587704392E+001	-3.4818289E-001	4.1557904E-004	1.4777219E+000	3.9845362E-002	1.000000000000000E+000	11	1.3421622E-001	9.1396715E-004	3.610108987499188E-006	1.0212145E-004	6.7172269E-003	1.1181965E-003	6.8096626E-003	9.4511900E+000	8.353943052417081E-007
3.9812742E+003	1.4522313E+002	2.6533672E+001	1.4762721E+002	-1.0354283E+001	2.904967033980938E+001	-3.4818053E-001	4.9881783E-004	1.5066093E+000	4.8670135E-002	1.000000000000000E+000	11	1.3440701E-001	9.1044878E-004	3.121995940904526E-006	2.6252642E-004	6.6635082E-003	1.2174875E-003	6.7738187E-003	1.0354283E+001	-4.881130465946626E-007
3.5465955E+003	1.4561623E+002	2.9249760E+001	1.4852486E+002	-1.1357790E+001	2.980995000255643E+001	-3.4818995E-001	4.5495920E-004	1.5342149E+000	5.9502129E-002	1.000000000000000E+000	11	1.3454507E-001	9.0587582E-004	2.965055503148202E-006	-5.8283542E-005	6.6010263E-003	1.3259405E-003	6.7328797E-003	1.1357790E+001	-1.569404377563235E-007
3.1610112E+003	1.4603178E+002	3.2286488E+001	1.4955835E+002	-1.2467093E+001	3.056967539867037E+001	-3.4817782E-001	4.5775782E-004	1.5594566E+000	7.2676428E-002	1.000000000000000E+000	11	1.3465561E-001	9.0035499E-004	2.856759418047659E-006	-2.1868854E-004	6.5286905E-003	1.4434424E-003	6.6863536E-003	1.2467093E+001	-1.082960851005432E-007
2.8172952E+003	1.4649522E+002	3.5651798E+001	1.5077103E+002	-1.3677889E+001	3.132992802144145E+001	-3.4818569E-001	4.1053965E-004	1.5845515E+000	8.8599943E-002	1.000000000000000E+000	11	1.3473110E-001	8.9361402E-004	2.224218531216643E-006	2.1918953E-005	6.4444770E-003	1.5683597E-003	6.6325739E-003	1.3677889E+001	-6.325408868310157E-007
2.5108032E+003	1.4699574E+002	3.9414799E+001	1.5218829E+002	-1.5009966E+001	3.208969893753238E+001	-3.4818393E-001	4.1632488E-004	1.6082300E+000	1.0787089E-001	1.000000000000000E+000	11	1.3478598E-001	8.8565279E-004	2.434393114591229E-006	-1.3848604E-004	6.3466169E-003	1.7017541E-003	6.5708077E-003	1.5009966E+001	2.101745833745859E-007
2.2378516E+003	1.4754323E+002	4.3591576E+001	1.5384807E+002	-1.6459749E+001	3.284997033362743E+001	-3.4818968E-001	4.4637223E-004	1.6314970E+000	1.3098070E-001	1.000000000000000E+000	11	1.3482097E-001	8.7632542E-004	3.241039197738145E-006	1.0212145E-004	6.2335460E-003	1.8416981E-003	6.4999191E-003	1.6459749E+001	8.066460831469158E-007
1.9956389E+003	1.4812248E+002	4.8233250E+001	1.5577777E+002	-1.8036848E+001	3.360969175639912E+001	-3.4817615E-001	4.9303094E-004	1.6534523E+000	1.5851623E-001	1.000000000000000E+000	11	1.3484085E-001	8.6559751E-004	2.775284800793088E-006	4.2293142E-004	6.1039361E-003	1.9876300E-003	6.4194012E-003	1.8036848E+001	-4.657543969450571E-007
1.7782927E+003	1.4875917E+002	5.3435982E+001	1.5806548E+002	-1.9758865E+001	3.436996403249213E+001	-3.4818819E-001	4.9657555E-004	1.6748776E+000	1.9141530E-001	1.000000000000000E+000	11	1.3484739E-001	8.5311098E-004	3.573249562384566E-006	4.2293142E-004	5.9540123E-003	2.1387488E-003	6.3264924E-003	1.9758865E+001	7.979647615914778E-007
1.5855076E+003	1.4941785E+002	5.9185524E+001	1.6071284E+002	-2.1608889E+001	3.512968212192936E+001	-3.4818807E-001	4.7567303E-004	1.6960409E+000	2.3002027E-001	1.000000000000000E+000	11	1.3483557E-001	8.3898444E-004	3.847286074808532E-006	-5.8283542E-005	5.7849721E-003	2.2914708E-003	6.2222779E-003	2.1608889E+001	2.740365124239660E-007
1.4118373E+003	1.5015485E+002	6.5676720E+001	1.6388994E+002	-2.3624245E+001	3.589122357140877E+001	-3.4818643E-001	4.5682318E-004	1.7164220E+000	2.7564007E-001	1.000000000000000E+000	11	1.3482520E-001	8.2265696E-004	4.539200976374357E-006	-1.3848604E-004	5.5902959E-003	2.4451579E-003	6.1016558E-003	2.3624245E+001	6.919149015658255E-007
1.2587914E+003	1.5091737E+002	7.2811722E+001	1.6756372E+002	-2.5755489E+001	3.665095947415102E+001	-3.4818467E-001	4.7641870E-004	1.7364610E+000	3.2787451E-001	1.000000000000000E+000	11	1.3479829E-001	8.0445985E-004	5.039166477068850E-006	3.4272892E-004	5.3750095E-003	2.5932316E-003	5.9678787E-003	2.5755489E+001	4.999655006944926E-007
1.1217948E+003	1.5173549E+002	8.0801056E+001	1.7190831E+002	-2.8035864E+001	3.740943873682409E+001	-3.4818497E-001	4.8015066E-004	1.7558591E+000	3.8790911E-001	1.000000000000000E+000	11	1.3476405E-001	7.8392978E-004	5.038864997241237E-006	1.0212145E-004	5.1344438E-003	2.7341561E-003	5.8170543E-003	2.8035864E+001	-3.014798276127989E-010
1.0003201E+003	1.5260966E+002	8.9658478E+001	1.7699817E+002	-3.0434319E+001	3.816866810627107E+001	-3.4818262E-001	4.7809709E-004	1.7745563E+000	4.5533913E-001	1.000000000000000E+000	11	1.3473289E-001	7.6121063E-004	5.819732191345692E-006	2.1918953E-005	4.8712953E-003	2.8618956E-003	5.6497757E-003	3.0434319E+001	7.808671941044551E-007
8.9142657E+002	1.5351392E+002	9.9588837E+001	1.8298759E+002	-3.2972618E+001	3.892742286223802E+001	-3.4818769E-001	4.4450426E-004	1.7927670E+000	5.3100902E-001	1.000000000000000E+000	11	1.3468832E-001	7.3605165E-004	6.538460574727853E-006	-1.3848604E-004	4.5846319E-003	2.9741807E-003	5.4648514E-003	3.2972618E+001	7.187283833821615E-007
7.9423773E+002	1.5449594E+002	1.1068702E+002	1.9005423E+002	-3.5619312E+001	3.968694132502424E+001	-3.4817976E-001	4.9601169E-004	1.8103933E+000	6.1406058E-001	1.000000000000000E+000	11	1.3464506E-001	7.0845598E-004	6.182212589296291E-006	-2.9889104E-004	4.2772237E-003	3.0643726E-003	5.2616559E-003	3.5619312E+001	-3.562479854315624E-007
7.0750946E+002	1.5552829E+002	1.2311480E+002	1.9835902E+002	-3.8364822E+001	4.044947298787883E+001	-3.4817964E-001	5.1299465E-004	1.8271643E+000	7.0387286E-001	1.000000000000000E+000	11	1.3460530E-001	6.7859428E-004	6.895759419894400E-006	3.4272892E-004	3.9528054E-003	3.1290054E-003	5.0413636E-003	3.8364822E+001	7.135468305981093E-007
6.3100964E+002	1.5659482E+002	1.3684314E+002	2.0796149E+002	-4.1149158E+001	4.120742830386735E+001	-3.4818044E-001	4.4188523E-004	1.8431518E+000	7.9807067E-001	1.000000000000000E+000	11	1.3455516E-001	6.4701959E-004	7.423775991166824E-006	-5.8283542E-005	3.6208585E-003	3.1641510E-003	4.8085828E-003	4.1149158E+001	5.280165712724235E-007
5.6233929E+002	1.5775027E+002	1.5230255E+002	2.1927429E+002	-4.3993401E+001	4.196392591317999E+001	-3.4818199E-001	4.7416970E-004	1.8582945E+000	8.9650649E-001	1.000000000000000E+000	11	1.3450463E-001	6.1340810E-004	7.406113871632543E-006	-5.8283542E-005	3.2809125E-003	3.1676104E-003	4.5604981E-003	4.3993401E+001	-1.766211953428061E-008
5.0144415E+002	1.5897667E+002	1.6949692E+002	2.3238499E+002	-4.6834423E+001	4.272117176247411E+001	-3.4818360E-001	4.4804090E-004	1.8725601E+000	9.9619234E-001	1.000000000000000E+000	11	1.3445711E-001	5.7859637E-004	7.933440628714581E-006	1.8232394E-004	2.9438606E-003	3.1386698E-003	4.3032039E-003	4.6834423E+001	5.273267570820381E-007
4.4685895E+002	1.6031606E+002	1.8883597E+002	2.4771004E+002	-4.9669743E+001	4.347794590509147E+001	-3.4818634E-001	4.1612698E-004	1.8861010E+000	1.0960925E+000	1.000000000000000E+000	11	1.3441823E-001	5.4264348E-004	7.593399190751976E-006	-1.3848604E-004	2.6127016E-003	3.0774958E-003	4.0369779E-003	4.9669743E+001	-3.400414379626051E-007
3.9808920E+002	1.6170920E+002	2.1053624E+002	2.6547198E+002	-5.2472763E+001	4.424069343467272E+001	-3.4817636E-001	4.2097777E-004	1.8989470E+000	1.1943433E+000	1.000000000000000E+000	11	1.3436830E-001	5.0614867E-004	7.464768497626412E-006	-5.8283542E-005	2.2945490E-003	2.9873729E-003	3.7668757E-003	5.2472763E+001	-1.286306931255644E-007
3.5465955E+002	1.6332605E+002	2.3482301E+002	2.8603714E+002	-5.5180294E+001	4.525193769601174E+001	-3.4818810E-001	7.8677951E-004	1.9110314E+000	1.2879657E+000	1.000000000000000E+000	12	1.3651198E-001	4.7725264E-004	7.676363778209027E-006	-5.8283542E-005	1.9962301E-003	2.8700919E-003	3.4960494E-003	5.5180294E+001	2.115952805826151E-007
3.1631586E+002	1.6503658E+002	2.6174667E+002	3.0943237E+002	-5.7767738E+001	4.600892354530515E+001	-3.4819213E-001	8.5880375E-004	1.9222859E+000	1.3754628E+000	1.000000000000000E+000	12	1.3615194E-001	4.4000547E-004	7.945891343187516E-006	-6.1970105E-004	1.7236486E-003	2.7336928E-003	3.2317240E-003	5.7767738E+001	2.695275649784892E-007
2.8189429E+002	1.6692188E+002	2.9203888E+002	3.3637720E+002	-6.0248833E+001	4.676439200781169E+001	-3.4818301E-001	8.5197209E-004	1.9332731E+000	1.4572076E+000	1.000000000000000E+000	12	1.3582250E-001	4.0378037E-004	8.212742151740005E-006	-5.8283542E-005	1.4752314E-003	2.5809975E-003	2.9728531E-003	6.0248833E+001	2.668508085524885E-007
2.5104436E+002	1.6905191E+002	3.2615231E+002	3.6736069E+002	-6.2601299E+001	4.752091041713720E+001	-3.4818837E-001	8.6219923E-004	1.9437892E+000	1.5321622E+000	1.000000000000000E+000	12	1.3553338E-001	3.6893817E-004	8.817035982056041E-006	-5.8283542E-005	1.2526644E-003	2.4167688E-003	2.7221204E-003	6.2601299E+001	6.042938303160366E-007
2.2392513E+002	1.7143352E+002	3.6377823E+002	4.0214929E+002	-6.4767456E+001	4.828371189337486E+001	-3.4818310E-001	8.5167255E-004	1.9538022E+000	1.5987458E+000	1.000000000000000E+000	12	1.3529201E-001	3.3642235E-004	9.335208308484653E-006	1.8232394E-004	1.0600371E-003	2.2493761E-003	2.4866387E-003	6.4767456E+001	5.181723264286115E-007
1.9955299E+002	1.7411890E+002	4.0619888E+002	4.4194449E+002	-6.6797401E+001	4.904522587617976E+001	-3.4819666E-001	8.5001043E-004	1.9634649E+000	1.6586897E+000	1.000000000000000E+000	12	1.3508236E-001	3.0565460E-004	9.552538214775874E-006	1.8232394E-004	8.9147757E-004	2.0797125E-003	2.2627276E-003	6.6797401E+001	2.173299062912212E-007
1.7778128E+002	1.7709525E+002	4.5372305E+002	4.8705988E+002	-6.8678513E+001	4.981323241934297E+001	-3.4819564E-001	9.0014079E-004	1.9730736E+000	1.7122227E+000	1.000000000000000E+000	12	1.3490106E-001	2.7697018E-004	9.563764719816997E-006	-2.9889104E-004	7.4652140E-004	1.9126087E-003	2.0531358E-003	6.8678513E+001	1.122650504112335E-008
1.5842838E+002	1.8056268E+002	5.0677026E+002	5.3797675E+002	-7.0388969E+001	5.057973397575552E+001	-3.4819424E-001	8.4959611E-004	1.9823304E+000	1.7590221E+000	1.000000000000000E+000	12	1.3475432E-001	2.5048354E-004	9.853931844637676E-006	-3.7909354E-004	6.2387995E-004	1.7509917E-003	1.8588164E-003	7.0388969E+001	2.901671248206783E-007
1.4131134E+002	1.8440562E+002	5.6552539E+002	5.9483142E+002	-7.1939972E+001	5.133289913152112E+001	-3.4818536E-001	8.4700197E-004	1.9915491E+000	1.8001448E+000	1.000000000000000E+000	12	1.3462937E-001	2.2633198E-004	9.832676307415264E-006	-2.1868854E-004	5.2117830E-004	1.5983221E-003	1.6811485E-003	7.1939972E+001	-2.125553722241145E-008
1.2584569E+002	1.8885732E+002	6.3215039E+002	6.5975842E+002	-7.3366287E+001	5.208840908735874E+001	-3.4819680E-001	8.4687141E-004	2.0006051E+000	1.8366749E+000	1.000000000000000E+000	12	1.3452868E-001	2.0390598E-004	1.018383922920940E-005	-5.8283542E-005	4.3387426E-004	1.4522806E-003	1.5157063E-003	7.3366287E+001	3.511629217941338E-007
1.1218996E+002	1.9384453E+002	7.0580078E+002	7.3193610E+002	-7.4642670E+001	5.283383098948980E+001	-3.4819144E-001	8.5372064E-004	2.0099442E+000	1.8689684E+000	1.000000000000000E+000	12	1.3444960E-001	1.8369035E-004	1.057720926124926E-005	1.0212145E-004	3.6183221E-004	1.3174551E-003	1.3662395E-003	7.4642670E+001	3.933700320398614E-007
1.0003201E+002	1.9959276E+002	7.8806421E+002	8.1294678E+002	-7.5787575E+001	5.359368169225490E+001	-3.4819081E-001	8.2452991E-004	2.0189219E+000	1.8972236E+000	1.000000000000000E+000	12	1.3438225E-001	1.6530264E-004	1.077768054893891E-005	-2.1868854E-004	3.0200946E-004	1.1924423E-003	1.2300928E-003	7.5787575E+001	2.004712876896514E-007
8.9115974E+001	2.0617967E+002	8.8058124E+002	9.0439667E+002	-7.6822128E+001	5.436073794201366E+001	-3.4819064E-001	8.1885565E-004	2.0281270E+000	1.9227202E+000	1.000000000000000E+000	12	1.3432610E-001	1.4852565E-004	1.085245381803846E-005	-1.3848604E-004	2.5207395E-004	1.0765928E-003	1.1057095E-003	7.6822128E+001	7.477326909954927E-008
7.9415527E+001	2.1382420E+002	9.8348773E+002	1.0064636E+003	-7.7733971E+001	5.512521224495140E+001	-3.4818849E-001	8.4203557E-004	2.0377257E+000	1.9457523E+000	1.000000000000000E+000	12	1.3427521E-001	1.3341289E-004	1.115362884443695E-005	1.8232394E-004	2.1108669E-004	9.7089633E-004	9.9357800E-004	7.7733971E+001	3.011750263984947E-007
7.0838745E+001	2.2216763E+002	1.0976168E+003	1.1198755E+003	-7.8557404E+001	5.587636929398286E+001	-3.4819499E-001	8.4363983E-004	2.0469089E+000	1.9663488E+000	1.000000000000000E+000	12	1.3424365E-001	1.1987373E-004	1.126169036716055E-005	-1.3848604E-004	1.7715011E-004	8.7520794E-004	8.9295639E-004	7.8557404E+001	1.080615227235998E-007
6.3082302E+001	2.3231473E+002	1.2266829E+003	1.2484874E+003	-7.9276070E+001	5.665685885105631E+001	-3.4818748E-001	8.1495335E-004	2.0567443E+000	1.9855305E+000	1.000000000000000E+000	12	1.3421586E-001	1.0750278E-004	1.144621514348041E-005	-1.3848604E-004	1.4904195E-004	7.8698038E-004	8.0096920E-004	7.9276070E+001	1.845247763198538E-007
5.6241817E+001	2.4335579E+002	1.3694427E+003	1.3908973E+003	-7.9923485E+001	5.740133243307355E+001	-3.4818467E-001	8.3300128E-004	2.0664120E+000	2.0031550E+000	1.000000000000000E+000	12	1.3418975E-001	9.6477110E-005	1.154922722616761E-005	1.0212145E-004	1.2579157E-004	7.0787035E-004	7.1896031E-004	7.9923485E+001	1.030120826872005E-007
5.0144413E+001	2.5622937E+002	1.5284432E+003	1.5497717E+003	-8.0483383E+001	5.815819614901557E+001	-3.4818363E-001	8.1568089E-004	2.0765781E+000	2.0198143E+000	1.000000000000000E+000	12	1.3417196E-001	8.6575310E-005	1.166247164049714E-005	3.4272892E-004	1.0668257E-004	6.3637609E-004	6.4525631E-004	8.0483383E+001	1.132444143295284E-007
4.4671219E+001	2.7158627E+002	1.7074567E+003	1.7289209E+003	-8.0962303E+001	5.892222575863707E+001	-3.4818280E-001	8.1439299E-004	2.0866165E+000	2.0351281E+000	1.000000000000000E+000	12	1.3416201E-001	7.7598699E-005	1.184036384834386E-005	1.0212145E-004	9.0856825E-005	5.7121477E-004	5.7839544E-004	8.0962303E+001	1.778922078467270E-007
3.9808922E+001	2.8842380E+002	1.9061810E+003	1.9278782E+003	-8.1395859E+001	5.968469598155934E+001	-3.4818947E-001	8.1618433E-004	2.0973725E+000	2.0504289E+000	1.000000000000000E+000	12	1.3414577E-001	6.9582078E-005	1.206449667948093E-005	2.6252642E-004	7.7601799E-005	5.1286729E-004	5.1870500E-004	8.1395859E+001	2.241328311370638E-007
3.5465305E+001	3.0765421E+002	2.1283201E+003	2.1504412E+003	-8.1774719E+001	6.043513185714255E+001	-3.4818441E-001	8.4098818E-004	2.1085286E+000	2.0653718E+000	1.000000000000000E+000	12	1.3413355E-001	6.2374900E-005	1.218720533060393E-005	2.6252642E-004	6.6528504E-005	4.6023729E-004	4.6502086E-004	8.1774719E+001	1.227086511229983E-007
3.1629551E+001	3.2983484E+002	2.3739048E+003	2.3967092E+003	-8.2089859E+001	6.115946725153481E+001	-3.4819224E-001	8.3671411E-004	2.1196485E+000	2.0795038E+000	1.000000000000000E+000	12	1.3412982E-001	5.5964163E-005	1.228716045025895E-005	-5.8283542E-005	5.7420340E-005	4.1326880E-004	4.1723877E-004	8.2089859E+001	9.995511965502776E-008
2.8170074E+001	3.5591202E+002	2.6503459E+003	2.6741367E+003	-8.2351570E+001	6.196473963651806E+001	-3.4818110E-001	8.5759890E-004	2.1317170E+000	2.0939555E+000	1.000000000000000E+000	12	1.3412292E-001	5.0155595E-005	1.245447055392025E-005	2.1918953E-005	4.9770897E-005	3.7062555E-004	3.7395247E-004	8.2351570E+001	1.673101036612930E-007
2.5104435E+001	3.8561960E+002	2.9592476E+003	2.9842668E+003	-8.2575623E+001	6.297094739097520E+001	-3.4818149E-001	9.0454088E-004	2.1423399E+000	2.1065691E+000	1.000000000000000E+000	13	1.3429463E-001	4.5000877E-005	1.258608861821752E-005	2.1918953E-005	4.3299584E-005	3.3228137E-004	3.3509068E-004	8.2575623E+001	1.316180642972747E-007
2.2385387E+001	4.1963177E+002	3.2997295E+003	3.3263052E+003	-8.2752510E+001	6.365743955687503E+001	-3.4817958E-001	9.0284232E-004	2.1546524E+000	2.1203604E+000	1.000000000000000E+000	13	1.3425648E-001	4.0362047E-005	1.287060681331549E-005	1.8232394E-004	3.7926620E-005	2.9823196E-004	3.0063387E-004	8.2752510E+001	2.845181950979657E-007
1.9955299E+001	4.5849347E+002	3.6797039E+003	3.7081582E+003	-8.2897514E+001	6.441821503298706E+001	-3.4818780E-001	9.0777350E-004	2.1674497E+000	2.1343136E+000	1.000000000000000E+000	13	1.3422242E-001	3.6196518E-005	1.302915007041746E-005	2.1918953E-005	3.3343920E-005	2.6760632E-004	2.6967566E-004	8.2897514E+001	1.585432571019717E-007
1.7796129E+001	5.0294824E+002	4.1013711E+003	4.1320942E+003	-8.3008766E+001	6.526253859311691E+001	-3.4818438E-001	9.1565173E-004	2.1805472E+000	2.1482420E+000	1.000000000000000E+000	13	1.3420093E-001	3.2477703E-005	1.325803619485774E-005	1.0212145E-004	2.9456609E-005	2.4020864E-004	2.4200803E-004	8.3008766E+001	2.288861244402756E-007