EC-Lab ASCII FILE
Nb header lines : 60                          

Potentio Electrochemical Impedance Spectroscopy

Run on channel : 8 (SN 41406)
User : 
CE vs. WE compliance from -10 V to 10 V
Electrode connection : standard
Ewe ctrl range : min = -5.00 V, max = 5.00 V
Acquisition started on : 12/03/2020 16:53:23
Technique started on : 12/03/2020 16:53:25
Saved on :
	File : DE_206_8_30.mpr
	Directory : P:\Chemistry\Data\VMP3\Kyler\DOE\DE_206\
	Host : 10.0.4.64
Device : VMP3 (SN 1432)
Address : USB
EC-Lab for windows v11.33 (software)
Internet server v11.32 (firmware)
Command interpretor v11.33 (firmware)
Electrode material : 
Initial state : 
Electrolyte : 
Comments : 
Electrode surface area : 0.001 cm²
Characteristic mass : 0.001 g
Equivalent Weight : 0.000 g/eq.
Density : 0.000 g/cm3
Record Analogic IN 1
Cycle Definition : Charge/Discharge alternance
Mode                Single sine         
E (V)               0.0000              
vs.                 Eoc                 
tE (h:m:s)          0:00:0.0000         
record              0                   
dI                  1.000               
unit dI             mA                  
dt (s)              0.000               
fi                  1.000               
unit fi             MHz                 
ff                  1.000               
unit ff             Hz                  
Nd                  20                  
Points              per decade          
spacing             Logarithmic         
Va (mV)             128.0               
pw                  0.50                
Na                  3                   
corr                0                   
E range min (V)     -5.000              
E range max (V)     5.000               
I Range             Auto                
Bandwidth           5                   
nc cycles           0                   
goto Ns'            0                   
nr cycles           0                   
inc. cycle          1                   

freq/Hz	Re(Z)/Ohm	-Im(Z)/Ohm	|Z|/Ohm	Phase(Z)/deg	time/s	<Ewe>/V	<I>/mA	Cs/µF	Cp/µF	cycle number	I Range	|Ewe|/V	|I|/A	(Q-Qo)/mA.h	Analog IN 1/V	Re(Y)/Ohm-1	Im(Y)/Ohm-1	|Y|/Ohm-1	Phase(Y)/deg	dq/mA.h	
1.0000186E+006	1.5402718E+002	1.0791061E+002	1.8806667E+002	-3.5014881E+001	2.963495634059655E+000	3.3263574E+000	5.8398565E-004	1.4748502E-003	4.8557081E-004	1.000000000000000E+000	11	1.7788967E-004	9.4588626E-007	-2.017134993196285E-005	1.4799214E-003	4.3548550E-003	3.0509881E-003	5.3172633E-003	3.5014881E+001	-2.017134993196285E-005
8.9124669E+005	1.5325693E+002	9.8437202E+001	1.8214711E+002	-3.2712708E+001	3.559497129026568E+000	3.3257813E+000	-2.9729234E-004	1.8141072E-003	5.2983046E-004	1.000000000000000E+000	11	1.2916921E-003	7.0914775E-006	-2.023482284647091E-005	1.4799214E-003	4.6192934E-003	2.9669807E-003	5.4900679E-003	3.2712708E+001	-6.347291450805979E-008
7.9433269E+005	1.6194759E+002	9.8895775E+001	1.8975615E+002	-3.1410965E+001	4.154477183968993E+000	3.3254681E+000	-6.5856060E-004	2.0260024E-003	5.5030530E-004	1.000000000000000E+000	11	3.1574948E-003	1.6639749E-005	-2.037095017010496E-005	1.1589337E-003	4.4976203E-003	2.7465406E-003	5.2699214E-003	3.1410965E+001	-1.361273236340511E-007
7.0794981E+005	1.7198314E+002	9.9779175E+001	1.9883180E+002	-3.0120951E+001	4.750483318959596E+000	3.3252990E+000	-8.6798053E-004	2.2530858E-003	5.6739547E-004	1.000000000000000E+000	11	5.9077782E-003	2.9712441E-005	-2.056266341700393E-005	1.1589337E-003	4.3502497E-003	2.5238772E-003	5.0293766E-003	3.0120951E+001	-1.917132468989732E-007
6.3095681E+005	1.8177524E+002	1.0030643E+002	2.0761411E+002	-2.8890604E+001	5.346481400571065E+000	3.3251820E+000	-1.0185239E-003	2.5147321E-003	5.8699661E-004	1.000000000000000E+000	11	9.6478686E-003	4.6470199E-005	-2.053522774270146E-005	8.3794596E-004	4.2171692E-003	2.3271001E-003	4.8166285E-003	2.8890604E+001	2.743567430247331E-008
5.6234225E+005	1.9147733E+002	1.0056065E+002	2.1627762E+002	-2.7707695E+001	5.941495908860816E+000	3.3251374E+000	-9.1549056E-004	2.8144361E-003	6.0844922E-004	1.000000000000000E+000	11	1.4431760E-002	6.6727938E-005	-2.066663153246029E-005	1.2391806E-003	4.0934943E-003	2.1498338E-003	4.6236869E-003	2.7707695E+001	-1.314037897588308E-007
5.0120619E+005	2.0117320E+002	1.0043609E+002	2.2485121E+002	-2.6530746E+001	6.538490203878609E+000	3.3250716E+000	-9.9299825E-004	3.1616511E-003	6.3081650E-004	1.000000000000000E+000	11	2.0301078E-002	9.0286718E-005	-2.095829259011872E-005	1.1589337E-003	3.9790524E-003	1.9865490E-003	4.4473852E-003	2.6530746E+001	-2.916610576584264E-007
4.4668572E+005	2.1054749E+002	9.9956200E+001	2.3306970E+002	-2.5395760E+001	7.133493458823068E+000	3.3250415E+000	-1.0885778E-003	3.5645796E-003	6.5562595E-004	1.000000000000000E+000	11	2.7230350E-002	1.1683351E-004	-2.080919727081022E-005	1.6404153E-003	3.8759524E-003	1.8400860E-003	4.2905621E-003	2.5395760E+001	1.490953193084950E-007
3.9810347E+005	2.1985994E+002	9.8935295E+001	2.4109456E+002	-2.4227381E+001	7.729481647111243E+000	3.3250484E+000	-1.0373393E-003	4.0408522E-003	6.8045693E-004	1.000000000000000E+000	11	3.5255238E-002	1.4622993E-004	-2.088349345935239E-005	9.1819291E-004	3.7824335E-003	1.7020662E-003	4.1477503E-003	2.4227381E+001	-7.429618854217098E-008
3.5480997E+005	2.2853831E+002	9.7529167E+001	2.4847878E+002	-2.3110458E+001	8.324492768704658E+000	3.3250065E+000	-1.0643549E-003	4.5992797E-003	7.0856587E-004	1.000000000000000E+000	11	4.4335965E-002	1.7842959E-004	-2.133660180749656E-005	1.1589337E-003	3.7015227E-003	1.5796318E-003	4.0244884E-003	2.3110458E+001	-4.531083481441677E-007
3.1622997E+005	2.3692331E+002	9.5794228E+001	2.5555663E+002	-2.2014759E+001	8.920484183676308E+000	3.3249722E+000	-1.1787532E-003	5.2538514E-003	7.3821377E-004	1.000000000000000E+000	11	5.4569054E-002	2.1353019E-004	-2.147423424978236E-005	1.0786868E-003	3.6277180E-003	1.4667803E-003	3.9130272E-003	2.2014759E+001	-1.376324422857998E-007
2.8183453E+005	2.4509213E+002	9.3739838E+001	2.6240677E+002	-2.0930241E+001	9.515476931905141E+000	3.3249247E+000	-1.1385080E-003	6.0242326E-003	7.6877640E-004	1.000000000000000E+000	11	6.5942124E-002	2.5129734E-004	-2.160010765853157E-005	1.1589337E-003	3.5594206E-003	1.3613636E-003	3.8108772E-003	2.0930241E+001	-1.258734087492074E-007
2.5118764E+005	2.5300804E+002	9.1336090E+001	2.6898950E+002	-1.9849619E+001	1.011048626687261E+001	3.3248971E+000	-1.1726026E-003	6.9371238E-003	7.9982250E-004	1.000000000000000E+000	11	7.8566492E-002	2.9208013E-004	-2.225929923538282E-005	1.4799214E-003	3.4967426E-003	1.2623266E-003	3.7176171E-003	1.9849619E+001	-6.591915768512507E-007
2.2387173E+005	2.6031882E+002	8.8717705E+001	2.7502130E+002	-1.8819317E+001	1.070549317510449E+001	3.3248906E+000	-1.2402332E-003	8.0132838E-003	8.3387026E-004	1.000000000000000E+000	11	9.2284329E-002	3.3555340E-004	-2.314573585799210E-005	1.4799214E-003	3.4416991E-003	1.1729449E-003	3.6360819E-003	1.8819317E+001	-8.864366226092782E-007
1.9954350E+005	2.6736911E+002	8.6063416E+001	2.8087924E+002	-1.7842842E+001	1.130247301681084E+001	3.3248813E+000	-1.1893677E-003	9.2675295E-003	8.7008532E-004	1.000000000000000E+000	11	1.0720319E-001	3.8167005E-004	-2.370879312421069E-005	9.9843985E-004	3.3890028E-003	1.0908857E-003	3.5602488E-003	1.7842842E+001	-5.630572662185933E-007
1.7783180E+005	2.7401215E+002	8.3283119E+001	2.8638913E+002	-1.6906099E+001	1.176149498528684E+001	3.3248413E+000	-1.2879284E-003	1.0746171E-002	9.0877136E-004	1.000000000000000E+000	11	1.2331763E-001	4.3059463E-004	-2.408600999061471E-005	1.4799214E-003	3.3408483E-003	1.0154158E-003	3.4917525E-003	1.6906099E+001	-3.772168664040190E-007
1.5848613E+005	2.8032330E+002	8.0441307E+001	2.9163669E+002	-1.6011311E+001	1.222148746045423E+001	3.3247900E+000	-1.4841200E-003	1.2483886E-002	9.4978145E-004	1.000000000000000E+000	11	1.4053984E-001	4.8190041E-004	-2.398480570330543E-005	1.1589337E-003	3.2959066E-003	9.4579015E-004	3.4289239E-003	1.6011311E+001	1.012042873092754E-007
1.4125594E+005	2.8636298E+002	7.7564751E+001	2.9668173E+002	-1.5155581E+001	1.281749687544652E+001	3.3248580E+000	-1.2502925E-003	1.4526099E-002	9.9287869E-004	1.000000000000000E+000	11	1.3059354E-001	4.4018056E-004	-2.330740372263891E-005	1.3194275E-003	3.2533836E-003	8.8121690E-004	3.3706154E-003	1.5155581E+001	6.774019806665239E-007
1.2590930E+005	2.9200964E+002	7.4751694E+001	3.0142569E+002	-1.4358825E+001	1.341448186381604E+001	3.3248720E+000	-1.2879281E-003	1.6909910E-002	1.0399749E-003	1.000000000000000E+000	11	1.2994614E-001	4.3110506E-004	-2.356335780987057E-005	1.3194275E-003	3.2139318E-003	8.2273595E-004	3.3175673E-003	1.4358825E+001	-2.559540872316573E-007
1.1220494E+005	2.9737866E+002	7.1913025E+001	3.0595026E+002	-1.3594459E+001	1.401049090540619E+001	3.3248761E+000	-1.2564416E-003	1.9724254E-002	1.0897178E-003	1.000000000000000E+000	11	1.2976432E-001	4.2413533E-004	-2.423852221477621E-005	1.7206622E-003	3.1769339E-003	7.6825597E-004	3.2685052E-003	1.3594459E+001	-6.751644049056467E-007
1.0000371E+005	3.0246887E+002	6.9131821E+001	3.1026865E+002	-1.2874295E+001	1.460649400038528E+001	3.3249333E+000	-1.0937867E-003	2.3021096E-002	1.1428947E-003	1.000000000000000E+000	11	1.2956859E-001	4.1760132E-004	-2.469908412515704E-005	1.1589337E-003	3.1419909E-003	7.1812858E-004	3.2230134E-003	1.2874295E+001	-4.605619103808273E-007
8.9129305E+004	3.0722217E+002	6.6413109E+001	3.1431857E+002	-1.2198097E+001	1.520247253539856E+001	3.3249340E+000	-1.1852690E-003	2.6887216E-002	1.2003650E-003	1.000000000000000E+000	11	1.2962419E-001	4.1239746E-004	-2.516837330875569E-005	1.2391806E-003	3.1096567E-003	6.7222351E-004	3.1814855E-003	1.2198097E+001	-4.692891835986492E-007
7.9433273E+004	3.1173212E+002	6.3765007E+001	3.1818689E+002	-1.1560416E+001	1.579748645695508E+001	3.3249166E+000	-1.2182468E-003	3.1422105E-002	1.2619308E-003	1.000000000000000E+000	11	1.2947980E-001	4.0693002E-004	-2.514115719879111E-005	1.5601683E-003	3.0790519E-003	6.2982203E-004	3.1428069E-003	1.1560416E+001	2.721610996458103E-008
7.0794977E+004	3.1595969E+002	6.1173962E+001	3.2182724E+002	-1.0957642E+001	1.639348461860209E+001	3.3249543E+000	-1.1474469E-003	3.6749471E-002	1.3278184E-003	1.000000000000000E+000	11	1.2917501E-001	4.0137998E-004	-2.440272405572857E-005	1.2391806E-003	3.0506055E-003	5.9063750E-004	3.1072572E-003	1.0957642E+001	7.384331430625433E-007
6.3093828E+004	3.1996658E+002	5.8740311E+001	3.2531375E+002	-1.0402677E+001	1.685348653382971E+001	3.3249569E+000	-1.1621651E-003	4.2943459E-002	1.4001180E-003	1.000000000000000E+000	11	1.3969667E-001	4.2942134E-004	-2.435102648567732E-005	1.3996745E-003	3.0234288E-003	5.5504905E-004	3.0739554E-003	1.0402677E+001	5.169757005124903E-008
5.6237012E+004	3.2378152E+002	5.6427219E+001	3.2866168E+002	-9.8859692E+000	1.744947216208675E+001	3.3249793E+000	-1.1386898E-003	5.0154421E-002	1.4783879E-003	1.000000000000000E+000	11	1.3031527E-001	3.9650279E-004	-2.516306196710098E-005	1.3194275E-003	2.9974636E-003	5.2238477E-004	3.0426425E-003	9.8859692E+000	-8.120354814236650E-007
5.0122477E+004	3.2725345E+002	5.4183182E+001	3.3170865E+002	-9.4011469E+000	1.790949247727985E+001	3.3249850E+000	-1.1131640E-003	5.8603439E-002	1.5636462E-003	1.000000000000000E+000	11	1.3892835E-001	4.1882644E-004	-2.550024426616599E-005	1.1589337E-003	2.9742031E-003	4.9243728E-004	3.0146937E-003	9.4011469E+000	-3.371822990650074E-007
4.4666715E+004	3.3057419E+002	5.2062996E+001	3.3464883E+002	-8.9501467E+000	1.850548373229685E+001	3.3249786E+000	-1.2065095E-003	6.8439521E-002	1.6564816E-003	1.000000000000000E+000	11	1.2989827E-001	3.8816291E-004	-2.642501681479836E-005	1.3996745E-003	2.9518227E-003	4.6489033E-004	2.9882069E-003	8.9501467E+000	-9.247725486323660E-007
3.9814063E+004	3.3377298E+002	5.0178558E+001	3.3752377E+002	-8.5496693E+000	1.896548764742329E+001	3.3249915E+000	-1.1625374E-003	7.9664610E-002	1.7607313E-003	1.000000000000000E+000	11	1.3648036E-001	4.0435776E-004	-2.668770370266995E-005	1.3996745E-003	2.9298302E-003	4.4046299E-004	2.9627543E-003	8.5496693E+000	-2.626868878715990E-007
3.5480996E+004	3.3674304E+002	4.8420429E+001	3.4020642E+002	-8.1824999E+000	1.956049794235150E+001	3.3249838E+000	-1.2061368E-003	9.2639394E-002	1.8765838E-003	1.000000000000000E+000	11	1.2940988E-001	3.8038637E-004	-2.624755743480475E-005	1.3996745E-003	2.9094680E-003	4.1835371E-004	2.9393919E-003	8.1824999E+000	4.401462678652031E-007
3.1621143E+004	3.3959647E+002	4.6756100E+001	3.4280008E+002	-7.8392735E+000	2.002048996425583E+001	3.3249938E+000	-1.2083719E-003	1.0764759E-001	2.0026222E-003	1.000000000000000E+000	11	1.3421248E-001	3.9151823E-004	-2.662171778664601E-005	1.4799214E-003	2.8898902E-003	3.9788394E-004	2.9171521E-003	7.8392735E+000	-3.741603518412583E-007
2.8188096E+004	3.4226202E+002	4.5367035E+001	3.4525565E+002	-7.5505743E+000	2.048047478610533E+001	3.3250072E+000	-1.2189925E-003	1.2445547E-001	2.1488850E-003	1.000000000000000E+000	11	1.3838546E-001	4.0082028E-004	-2.689474055640878E-005	1.4799214E-003	2.8712905E-003	3.8059126E-004	2.8964046E-003	7.5505743E+000	-2.730227697627723E-007
2.5116910E+004	3.4489102E+002	4.4065258E+001	3.4769464E+002	-7.2809901E+000	2.107548665432842E+001	3.3249967E+000	-1.2342712E-003	1.4379957E-001	2.3096928E-003	1.000000000000000E+000	11	1.2943903E-001	3.7227789E-004	-2.717324902581256E-005	1.3996745E-003	2.8528958E-003	3.6450231E-004	2.8760869E-003	7.2809901E+000	-2.785084694037815E-007
2.2389027E+004	3.4736194E+002	4.2957230E+001	3.5000806E+002	-7.0498071E+000	2.153447998283082E+001	3.3249869E+000	-1.2793590E-003	1.6548119E-001	2.4926718E-003	1.000000000000000E+000	11	1.3220438E-001	3.7771813E-004	-2.756103784960902E-005	1.4799214E-003	2.8354772E-003	3.5065511E-004	2.8570772E-003	7.0498071E+000	-3.877888237964521E-007
1.9948783E+004	3.4975922E+002	4.2021725E+001	3.5227451E+002	-6.8509479E+000	2.199448661800125E+001	3.3249953E+000	-1.2061367E-003	1.8985842E-001	2.7015635E-003	1.000000000000000E+000	11	1.3450405E-001	3.8181603E-004	-2.796168625706438E-005	1.3996745E-003	2.8184266E-003	3.3861911E-004	2.8386954E-003	6.8509479E+000	-4.006484074553657E-007
1.7786895E+004	3.5209772E+002	4.1225761E+001	3.5450299E+002	-6.6781344E+000	2.245448127985583E+001	3.3249798E+000	-1.2722797E-003	2.1704577E-001	2.9352757E-003	1.000000000000000E+000	11	1.3640735E-001	3.8478474E-004	-2.843353568482396E-005	8.3794596E-004	2.8017114E-003	3.2804153E-004	2.8208506E-003	6.6781344E+000	-4.718494277595820E-007
1.5847686E+004	3.5441547E+002	4.0587616E+001	3.5673193E+002	-6.5330453E+000	2.291347860833048E+001	3.3249917E+000	-1.2905386E-003	2.4743478E-001	3.2030509E-003	1.000000000000000E+000	11	1.3797076E-001	3.8676313E-004	-2.889238415327580E-005	1.5601683E-003	2.7850224E-003	3.1894044E-004	2.8032253E-003	6.5330453E+000	-4.588484684518334E-007
1.4121879E+004	3.5666425E+002	4.0155609E+001	3.5891763E+002	-6.4236856E+000	2.337247489675065E+001	3.3250055E+000	-1.2286813E-003	2.8066057E-001	3.5130496E-003	1.000000000000000E+000	11	1.3923550E-001	3.8793162E-004	-2.900242934840693E-005	1.3194275E-003	2.7686625E-003	3.1171425E-004	2.7861546E-003	6.4236856E+000	-1.100451951311295E-007
1.2590932E+004	3.5887827E+002	3.9936829E+001	3.6109357E+002	-6.3498850E+000	2.383249750526738E+001	3.3249977E+000	-1.2294264E-003	3.1651092E-001	3.8716523E-003	1.000000000000000E+000	11	1.4025044E-001	3.8840470E-004	-2.948233788339146E-005	9.9843985E-004	2.7523753E-003	3.0629087E-004	2.7693652E-003	6.3498850E+000	-4.799085349845361E-007
1.1217711E+004	3.6116400E+002	3.9815430E+001	3.6335205E+002	-6.2909961E+000	2.442848676026915E+001	3.3250008E+000	-1.2087465E-003	3.5633996E-001	4.2787022E-003	1.000000000000000E+000	11	1.2934561E-001	3.5597876E-004	-3.041319385090416E-005	1.3194275E-003	2.7355789E-003	3.0157561E-004	2.7521518E-003	6.2909961E+000	-9.308559675126962E-007
1.0002229E+004	3.6340250E+002	3.9926613E+001	3.6558926E+002	-6.2698736E+000	2.488847542213625E+001	3.3250098E+000	-1.2478728E-003	3.9852983E-001	4.7533405E-003	1.000000000000000E+000	11	1.2993002E-001	3.5539889E-004	-3.034649454013238E-005	1.3996745E-003	2.7189488E-003	2.9872777E-004	2.7353100E-003	6.2698736E+000	6.669931077178166E-008
8.9149297E+003	3.6567346E+002	4.0186115E+001	3.6787500E+002	-6.2714210E+000	2.537090261839330E+001	3.3250422E+000	-1.2012938E-003	4.4424871E-001	5.3012427E-003	1.000000000000000E+000	11	1.3040864E-001	3.5449173E-004	-3.063862503285701E-005	1.2391806E-003	2.7020471E-003	2.9694467E-004	2.7183148E-003	6.2714210E+000	-2.921304927246310E-007
7.9439976E+003	3.6806079E+002	4.0553871E+001	3.7028821E+002	-6.2876320E+000	2.589699325669790E+001	3.3250446E+000	-1.2529036E-003	4.9402472E-001	5.9256172E-003	1.000000000000000E+000	11	1.3078199E-001	3.5318974E-004	-3.059227166672240E-005	9.9843985E-004	2.6843541E-003	2.9576893E-004	2.7005991E-003	6.2876320E+000	4.635336613460425E-008
7.0822334E+003	3.7047308E+002	4.1123192E+001	3.7274847E+002	-6.3340073E+000	2.647386245743837E+001	3.3250382E+000	-1.2897939E-003	5.4646593E-001	6.6512758E-003	1.000000000000000E+000	11	1.3107218E-001	3.5163705E-004	-3.065509139877718E-005	1.0786868E-003	2.6663977E-003	2.9597504E-004	2.6827743E-003	6.3340073E+000	-6.281973205477811E-008
6.3077344E+003	3.7296591E+002	4.1867264E+001	3.7530847E+002	-6.4049201E+000	2.710753222086350E+001	3.3250358E+000	-1.4537527E-003	6.0265970E-001	7.4997121E-003	1.000000000000000E+000	11	1.3130035E-001	3.4984646E-004	-3.111307754925656E-005	1.7206622E-003	2.6478444E-003	2.9723355E-004	2.6644750E-003	6.4049201E+000	-4.579861504793771E-007
5.6210552E+003	3.7561346E+002	4.2658192E+001	3.7802805E+002	-6.4792852E+000	2.780827916078852E+001	3.3250735E+000	-1.3809025E-003	6.6374284E-001	8.4519451E-003	1.000000000000000E+000	11	1.3148378E-001	3.4781487E-004	-3.164913633466454E-005	1.4799214E-003	2.6284100E-003	2.9850693E-004	2.6453063E-003	6.4792852E+000	-5.360587854079816E-007
5.0116035E+003	3.7834692E+002	4.3668724E+001	3.8085870E+002	-6.5839338E+000	2.856870141029503E+001	3.3250723E+000	-1.3315293E-003	7.2723186E-001	9.5606223E-003	1.000000000000000E+000	11	1.3161916E-001	3.4558526E-004	-3.219913207214025E-005	1.3194275E-003	2.6083293E-003	3.0105285E-004	2.6256456E-003	6.5839338E+000	-5.499957374757063E-007
4.4664292E+003	3.8128931E+002	4.4738792E+001	3.8390506E+002	-6.6922321E+000	2.932868989972485E+001	3.3250799E+000	-1.2597977E-003	7.9648101E-001	1.0816737E-002	1.000000000000000E+000	11	1.3172686E-001	3.4312354E-004	-3.276899293018828E-005	1.1589337E-003	2.5870628E-003	3.0355447E-004	2.6048108E-003	6.6922321E+000	-5.698608580480347E-007
3.9812742E+003	3.8437711E+002	4.6154827E+001	3.8713824E+002	-6.8471193E+000	3.033969234774850E+001	3.3250613E+000	6.8677880E-005	8.6612564E-001	1.2310707E-002	1.000000000000000E+000	12	1.3075773E-001	3.3775464E-004	-3.286003442789176E-005	1.3996745E-003	2.5646337E-003	3.0795339E-004	2.5830567E-003	6.8471193E+000	-9.104149770347667E-008
3.5465955E+003	3.8762695E+002	4.7438919E+001	3.9051901E+002	-6.9773283E+000	3.109896067713271E+001	3.3250639E+000	2.5329353E-005	9.4596207E-001	1.3959148E-002	1.000000000000000E+000	12	1.3133244E-001	3.3630230E-004	-3.256097693847106E-005	1.4799214E-003	2.5417309E-003	3.1106445E-004	2.5606947E-003	6.9773283E+000	2.990574894206997E-007
3.1610112E+003	3.9108124E+002	4.8747139E+001	3.9410764E+002	-7.1051059E+000	3.185867561989289E+001	3.3250554E+000	6.4355569E-005	1.0328684E+000	1.5802054E-002	1.000000000000000E+000	12	1.3175923E-001	3.3432295E-004	-3.231374606904036E-005	1.3996745E-003	2.5178932E-003	3.1384802E-004	2.5373779E-003	7.1051059E+000	2.472308694306959E-007
2.8172952E+003	3.9475336E+002	5.0095196E+001	3.9791925E+002	-7.2323208E+000	3.261795840261038E+001	3.3250599E+000	5.1204352E-005	1.1276951E+000	1.7872855E-002	1.000000000000000E+000	12	1.3206485E-001	3.3188856E-004	-3.204874784398332E-005	1.7206622E-003	2.4930784E-003	3.1637793E-004	2.5130727E-003	7.2323208E+000	2.649982250570466E-007
2.5108032E+003	3.9858966E+002	5.1417686E+001	4.0189240E+002	-7.3505077E+000	3.337767195871129E+001	3.3250546E+000	5.4799631E-005	1.2328066E+000	2.0179035E-002	1.000000000000000E+000	12	1.3227180E-001	3.2912241E-004	-3.188994008845616E-005	1.5601683E-003	2.4677801E-003	3.1834128E-004	2.4882283E-003	7.3505077E+000	1.588077555271530E-007
2.2378516E+003	4.0271332E+002	5.2774666E+001	4.0615659E+002	-7.4659371E+000	3.413694924808806E+001	3.3250589E+000	4.5522091E-005	1.3476074E+000	2.2752408E-002	1.000000000000000E+000	12	1.3241127E-001	3.2601040E-004	-3.201415270907758E-005	9.1819291E-004	2.4412316E-003	3.1991786E-004	2.4621047E-003	7.4659371E+000	-1.242126206214207E-007
1.9956389E+003	4.0700787E+002	5.4013336E+001	4.1057623E+002	-7.5594563E+000	3.489666960418981E+001	3.3250546E+000	5.9344638E-005	1.4765127E+000	2.5553569E-002	1.000000000000000E+000	12	1.3249356E-001	3.2270147E-004	-3.192171805876630E-005	1.4799214E-003	2.4144333E-003	3.2041542E-004	2.4356013E-003	7.5594563E+000	9.243465031128574E-008
1.7782927E+003	4.1158786E+002	5.5158527E+001	4.1526743E+002	-7.6329565E+000	3.565593198689749E+001	3.3250663E+000	6.7038149E-005	1.6225729E+000	2.8626867E-002	1.000000000000000E+000	12	1.3254106E-001	3.1917039E-004	-3.203859736503748E-005	1.3194275E-003	2.3867495E-003	3.1985776E-004	2.4080868E-003	7.6329565E+000	-1.168793062711774E-007
1.5855076E+003	4.1632495E+002	5.6155281E+001	4.2009509E+002	-7.6818805E+000	3.641570527634030E+001	3.3250589E+000	3.8611088E-005	1.7875623E+000	3.1940904E-002	1.000000000000000E+000	12	1.3254488E-001	3.1551160E-004	-3.226907771403280E-005	1.5601683E-003	2.3590506E-003	3.1819649E-004	2.3804135E-003	7.6818805E+000	-2.304803489953239E-007
1.4118373E+003	4.2132855E+002	5.7003468E+001	4.2516721E+002	-7.7050228E+000	3.717620544575038E+001	3.3250554E+000	6.4374159E-005	1.9775808E+000	3.5548169E-002	1.000000000000000E+000	12	1.3253801E-001	3.1173148E-004	-3.205495830919871E-005	1.2391806E-003	2.3307805E-003	3.1534195E-004	2.3520158E-003	7.7050228E+000	2.141194048340918E-007
1.2587914E+003	4.2642474E+002	5.7581055E+001	4.3029483E+002	-7.6902575E+000	3.793593468185281E+001	3.3250551E+000	3.8964521E-005	2.1957695E+000	3.9320018E-002	1.000000000000000E+000	12	1.3251251E-001	3.0795747E-004	-3.185404167352257E-005	1.7206622E-003	2.3030860E-003	3.1099067E-004	2.3239879E-003	7.6902575E+000	2.009166356761402E-007
1.1217948E+003	4.3163937E+002	5.7878990E+001	4.3550262E+002	-7.6372962E+000	3.869441085119615E+001	3.3250544E+000	3.6710640E-005	2.4512396E+000	4.3295830E-002	1.000000000000000E+000	12	1.3247454E-001	3.0418771E-004	-3.198828023451703E-005	7.5769902E-004	2.2758285E-003	3.0516827E-004	2.2961975E-003	7.6372962E+000	-1.342385609944612E-007
1.0003201E+003	4.3692523E+002	5.7959053E+001	4.4075266E+002	-7.5562901E+000	3.945367379397067E+001	3.3250585E+000	2.7433407E-005	2.7451108E+000	4.7469269E-002	1.000000000000000E+000	12	1.3243335E-001	3.0047091E-004	-3.174382453420367E-005	1.3996745E-003	2.2491438E-003	2.9835367E-004	2.2688461E-003	7.5562901E+000	2.444557003133604E-007
8.9142657E+002	4.4223386E+002	5.7685795E+001	4.4598032E+002	-7.4318051E+000	4.021242270994117E+001	3.3250563E+000	3.9653463E-005	3.0950356E+000	5.1781192E-002	1.000000000000000E+000	12	1.3238670E-001	2.9684426E-004	-3.153958426759891E-005	1.4799214E-003	2.2234155E-003	2.9002639E-004	2.2422515E-003	7.4318051E+000	2.042402666047551E-007
7.9423773E+002	4.4752295E+002	5.7100960E+001	4.5115109E+002	-7.2712727E+000	4.097194373272941E+001	3.3250599E+000	1.1207810E-005	3.5093462E+000	5.6217175E-002	1.000000000000000E+000	12	1.3234481E-001	2.9334921E-004	-3.173742669791662E-005	7.5769902E-004	2.1987269E-003	2.8054300E-004	2.2165524E-003	7.2712727E+000	-1.978424303177026E-007
7.0750946E+002	4.5271359E+002	5.6269829E+001	4.5619720E+002	-7.0852151E+000	4.173443747559213E+001	3.3250554E+000	4.9209702E-005	3.9977190E+000	6.0821656E-002	1.000000000000000E+000	12	1.3229485E-001	2.8999487E-004	-3.145373197221306E-005	1.7206622E-003	2.1752955E-003	2.7037738E-004	2.1920344E-003	7.0852151E+000	2.836947257035504E-007
6.3100964E+002	4.5773801E+002	5.5144966E+001	4.6104776E+002	-6.8694754E+000	4.249243892493541E+001	3.3250570E+000	2.8215138E-005	4.5738115E+000	6.5433204E-002	1.000000000000000E+000	12	1.3226128E-001	2.8687110E-004	-3.121985118945768E-005	1.4799214E-003	2.1534022E-003	2.5942634E-004	2.1689727E-003	6.8694754E+000	2.338807827553810E-007
5.6233929E+002	4.6255405E+002	5.3768635E+001	4.6566867E+002	-6.6304712E+000	4.324891624087468E+001	3.3250580E+000	2.3613740E-005	5.2637191E+000	7.0177302E-002	1.000000000000000E+000	12	1.3221820E-001	2.8393191E-004	-3.112032484089468E-005	1.5601683E-003	2.1330863E-003	2.4795620E-004	2.1474496E-003	6.6304712E+000	9.952634856300155E-008
5.0144415E+002	4.6711700E+002	5.2176414E+001	4.7002200E+002	-6.3734512E+000	4.400615862352424E+001	3.3250613E+000	1.8434983E-005	6.0830774E+000	7.4961007E-002	1.000000000000000E+000	12	1.3218552E-001	2.8123261E-004	-3.101550863920723E-005	1.3194275E-003	2.1144105E-003	2.3617713E-004	2.1275601E-003	6.3734512E+000	1.048162016874520E-007
4.4685895E+002	4.7144885E+002	5.0485764E+001	4.7414432E+002	-6.1123061E+000	4.476290785946185E+001	3.3250563E+000	1.1412020E-005	7.0547357E+000	7.9982966E-002	1.000000000000000E+000	12	1.3214813E-001	2.7870867E-004	-3.106874161800543E-005	1.0786868E-003	2.0970725E-003	2.2456798E-004	2.1090624E-003	6.1123061E+000	-5.323297879820124E-008
3.9808920E+002	4.7551453E+002	4.8579544E+001	4.7798959E+002	-5.8332171E+000	4.552570496237604E+001	3.3250604E+000	8.7667595E-006	8.2297430E+000	8.5007310E-002	1.000000000000000E+000	12	1.3212571E-001	2.7641963E-004	-3.122468409865905E-005	1.6404153E-003	2.0812629E-003	2.1262610E-004	2.0920958E-003	5.8332171E+000	-1.559424806536210E-007
3.5465955E+002	4.7924005E+002	4.6650154E+001	4.8150522E+002	-5.5597658E+000	4.628496662509860E+001	3.3250611E+000	-3.4060078E-005	9.6195641E+000	9.0294145E-002	1.000000000000000E+000	12	1.3210285E-001	2.7435392E-004	-3.115571588630357E-005	9.1819291E-004	2.0670507E-003	2.0121071E-004	2.0768207E-003	5.5597658E+000	6.896821235548447E-008
3.1631586E+002	4.8267938E+002	4.4750481E+001	4.8474942E+002	-5.2969007E+000	4.704191242103116E+001	3.3250573E+000	1.9105397E-005	1.1243498E+001	9.5821343E-002	1.000000000000000E+000	12	1.3208631E-001	2.7248368E-004	-3.118247733099795E-005	1.7206622E-003	2.0541120E-003	1.9044215E-004	2.0629214E-003	5.2969007E+000	-2.676144469438216E-008
2.8189429E+002	4.8584457E+002	4.2869888E+001	4.8773227E+002	-5.0425978E+000	4.779742800354143E+001	3.3250606E+000	5.1339816E-006	1.3169870E+001	1.0174738E-001	1.000000000000000E+000	12	1.3206604E-001	2.7077569E-004	-3.127567037133586E-005	1.3996745E-003	2.0423699E-003	1.8021437E-004	2.0503053E-003	5.0425978E+000	-9.319304033791317E-008
2.5104436E+002	4.8875909E+002	4.1027031E+001	4.9047800E+002	-4.7982287E+000	4.855393881286727E+001	3.3250616E+000	-5.2909621E-007	1.5452529E+001	1.0811867E-001	1.000000000000000E+000	12	1.3205095E-001	2.6922909E-004	-3.156734754884767E-005	1.5601683E-003	2.0316823E-003	1.7054187E-004	2.0388274E-003	4.7982287E+000	-2.916771775118067E-007
2.2392513E+002	4.9145221E+002	3.9308311E+001	4.9302173E+002	-4.5730100E+000	4.931673655577470E+001	3.3250558E+000	5.3201211E-006	1.8081436E+001	1.1493958E-001	1.000000000000000E+000	12	1.3203779E-001	2.6781333E-004	-3.181359110114601E-005	7.5769902E-004	2.0218510E-003	1.6171572E-004	2.0283081E-003	4.5730100E+000	-2.462435522983350E-007
1.9955299E+002	4.9385516E+002	3.7682846E+001	4.9529074E+002	-4.3634095E+000	5.007720795183559E+001	3.3250563E+000	2.6295922E-005	2.1164995E+001	1.2251384E-001	1.000000000000000E+000	12	1.3202867E-001	2.6656801E-004	-3.174465662029150E-005	1.1589337E-003	2.0131641E-003	1.5361133E-004	2.0190161E-003	4.3634095E+000	6.893448085450041E-008
1.7778128E+002	4.9611490E+002	3.6242542E+001	4.9743695E+002	-4.1781902E+000	5.084425548164290E+001	3.3250573E+000	3.5069392E-005	2.4701054E+001	1.3112234E-001	1.000000000000000E+000	12	1.3201612E-001	2.6539268E-004	-3.147632964296221E-005	1.2391806E-003	2.0049622E-003	1.4646792E-004	2.0103049E-003	4.1781902E+000	2.683269773292980E-007
1.5842838E+002	4.9822424E+002	3.4914536E+001	4.9944611E+002	-4.0086174E+000	5.161075063806493E+001	3.3250566E+000	-1.4538081E-005	2.8772718E+001	1.4060999E-001	1.000000000000000E+000	12	1.3201030E-001	2.6431339E-004	-3.142028840990336E-005	1.1589337E-003	1.9973197E-003	1.3996808E-004	2.0022180E-003	4.0086174E+000	5.604123305885179E-008
1.4131134E+002	5.0017722E+002	3.3724903E+001	5.0131290E+002	-3.8573813E+000	5.236388344716397E+001	3.3250515E+000	1.2584768E-005	3.3395844E+001	1.5113884E-001	1.000000000000000E+000	12	1.3200358E-001	2.6331574E-004	-3.159149306553506E-005	1.6404153E-003	1.9902431E-003	1.3419395E-004	1.9947621E-003	3.8573813E+000	-1.712046556317043E-007
1.2584569E+002	5.0204712E+002	3.2759407E+001	5.0311478E+002	-3.7333519E+000	5.311942769636516E+001	3.3250461E+000	-2.8062250E-005	3.8605194E+001	1.6367550E-001	1.000000000000000E+000	12	1.3200304E-001	2.6237161E-004	-3.140052572988315E-005	1.3996745E-003	1.9834000E-003	1.2942014E-004	1.9876179E-003	3.7333519E+000	1.909673356519047E-007
1.1218996E+002	5.0383249E+002	3.1924915E+001	5.0484293E+002	-3.6256509E+000	5.386486055844580E+001	3.3250496E+000	-4.2366964E-006	4.4436146E+001	1.7769833E-001	1.000000000000000E+000	12	1.3199531E-001	2.6145816E-004	-3.111312230302853E-005	1.3996745E-003	1.9768495E-003	1.2526139E-004	1.9808142E-003	3.6256509E+000	2.874034268546253E-007
1.0003201E+002	5.0553705E+002	3.1283737E+001	5.0650409E+002	-3.5410726E+000	5.462469510122173E+001	3.3250501E+000	-4.9632413E-006	5.0858379E+001	1.9401436E-001	1.000000000000000E+000	12	1.3198860E-001	2.6058743E-004	-3.103608688993841E-005	1.3996745E-003	1.9705484E-003	1.2194183E-004	1.9743177E-003	3.5410726E+000	7.703541309011657E-008
8.9115974E+001	5.0725388E+002	3.0777601E+001	5.0818674E+002	-3.4721618E+000	5.539171657765110E+001	3.3250589E+000	1.1410862E-005	5.8026955E+001	2.1283972E-001	1.000000000000000E+000	12	1.3199009E-001	2.5972753E-004	-3.117109581882465E-005	1.1589337E-003	1.9641684E-003	1.1917581E-004	1.9677805E-003	3.4721618E+000	-1.350089288862334E-007
7.9415527E+001	5.0887259E+002	3.0465878E+001	5.0978375E+002	-3.4261723E+000	5.615624829390435E+001	3.3250492E+000	-5.3359913E-006	6.5781082E+001	2.3493969E-001	1.000000000000000E+000	12	1.3198569E-001	2.5890526E-004	-3.098695638142636E-005	1.3996745E-003	1.9581099E-003	1.1723080E-004	1.9616161E-003	3.4261723E+000	1.841394373982904E-007
7.0838745E+001	5.1048999E+002	3.0250774E+001	5.1138550E+002	-3.3912854E+000	5.690739544961252E+001	3.3250532E+000	-1.3178865E-005	7.4269890E+001	2.5988963E-001	1.000000000000000E+000	12	1.3198122E-001	2.5808558E-004	-3.111926585644505E-005	1.7206622E-003	1.9520476E-003	1.1567504E-004	1.9554719E-003	3.3912854E+000	-1.323094750186959E-007
6.3082302E+001	5.1211993E+002	3.0259760E+001	5.1301312E+002	-3.3815186E+000	5.768782236670086E+001	3.3250644E+000	-1.7127784E-005	8.3377167E+001	2.9008225E-001	1.000000000000000E+000	12	1.3198334E-001	2.5727088E-004	-3.107325117181507E-005	1.6404153E-003	1.9458741E-003	1.1497636E-004	1.9492679E-003	3.3815186E+000	4.601468462998284E-008
5.6241817E+001	5.1374341E+002	3.0405285E+001	5.1464240E+002	-3.3870306E+000	5.843135392197291E+001	3.3250566E+000	2.8642145E-005	9.3070427E+001	3.2486188E-001	1.000000000000000E+000	12	1.3198119E-001	2.5645224E-004	-3.129300607458228E-005	8.3794596E-004	1.9397027E-003	1.1479896E-004	1.9430969E-003	3.3870306E+000	-2.197549027672154E-007
5.0144413E+001	5.1540399E+002	3.0702475E+001	5.1631763E+002	-3.4090655E+000	5.918815569128492E+001	3.3250561E+000	3.7024700E-005	1.0337706E+002	3.6554179E-001	1.000000000000000E+000	12	1.3197640E-001	2.5561085E-004	-3.145083273171946E-005	1.0786868E-003	1.9333650E-003	1.1517003E-004	1.9367923E-003	3.4090655E+000	-1.578266571371711E-007
4.4671219E+001	5.1712683E+002	3.1087318E+001	5.1806042E+002	-3.4402220E+000	5.995222690087394E+001	3.3250558E+000	2.4096624E-005	1.1460645E+002	4.1268125E-001	1.000000000000000E+000	12	1.3197663E-001	2.5475145E-004	-3.145839494920620E-005	1.3996745E-003	1.9267983E-003	1.1583037E-004	1.9302767E-003	3.4402220E+000	-7.562217486740063E-009
3.9808922E+001	5.1887640E+002	3.1660223E+001	5.1984143E+002	-3.4916811E+000	6.071470240381313E+001	3.3250577E+000	2.5989825E-006	1.2627744E+002	4.6839464E-001	1.000000000000000E+000	12	1.3197626E-001	2.5387792E-004	-3.121930448005777E-005	1.3194275E-003	1.9200925E-003	1.1715807E-004	1.9236635E-003	3.4916811E+000	2.390904691484239E-007
3.5465305E+001	5.2066833E+002	3.2351265E+001	5.2167242E+002	-3.5554519E+000	6.146512467940920E+001	3.3250544E+000	-3.2504399E-006	1.3871556E+002	5.3347236E-001	1.000000000000000E+000	12	1.3197052E-001	2.5297585E-004	-3.148988807913277E-005	1.3194275E-003	1.9132223E-003	1.1887637E-004	1.9169118E-003	3.5554519E+000	-2.705835990749996E-007
3.1629551E+001	5.2252875E+002	3.3164314E+001	5.2358014E+002	-3.6316278E+000	6.218942727378453E+001	3.3250544E+000	2.1040953E-005	1.5172462E+002	6.0873997E-001	1.000000000000000E+000	12	1.3196909E-001	2.5205137E-004	-3.178024757620309E-005	1.4799214E-003	1.9060920E-003	1.2097753E-004	1.9099273E-003	3.6316278E+000	-2.903594970703153E-007
2.8170074E+001	5.2446796E+002	3.4121002E+001	5.2557672E+002	-3.7223213E+000	6.299378131206322E+001	3.3250618E+000	4.8964568E-005	1.6558095E+002	6.9788146E-001	1.000000000000000E+000	12	1.3197950E-001	2.5111367E-004	-3.171726287022122E-005	1.7206622E-003	1.8986579E-003	1.2352350E-004	1.9026718E-003	3.7223213E+000	6.298470598186192E-008
2.5104435E+001	5.2649261E+002	3.5200211E+001	5.2766803E+002	-3.8249850E+000	6.374991062795743E+001	3.3250554E+000	-1.1857606E-005	1.8010445E+002	8.0148131E-001	1.000000000000000E+000	12	1.3197237E-001	2.5010493E-004	-3.157550546851720E-005	1.4799214E-003	1.8909095E-003	1.2642231E-004	1.8951310E-003	3.8249850E+000	1.417574017040284E-007
2.2385387E+001	5.2855994E+002	3.6409782E+001	5.2981250E+002	-3.9405870E+000	6.443642258053296E+001	3.3250284E+000	-1.0904228E-004	1.9527086E+002	9.2220867E-001	1.000000000000000E+000	12	1.3197586E-001	2.4909919E-004	-3.159031212157970E-005	1.0786868E-003	1.8829980E-003	1.2971007E-004	1.8874602E-003	3.9405870E+000	-1.480665306250568E-008
1.9955299E+001	5.3070569E+002	3.7780888E+001	5.3204883E+002	-4.0720110E+000	6.519820288338815E+001	3.3250582E+000	1.9046811E-005	2.1110074E+002	1.0644642E+000	1.000000000000000E+000	12	1.3196430E-001	2.4803041E-004	-3.116999481308914E-005	1.5601683E-003	1.8747820E-003	1.3346554E-004	1.8795268E-003	4.0720110E+000	4.203173084905648E-007
1.7796129E+001	5.3307599E+002	3.9198948E+001	5.3451526E+002	-4.2055902E+000	6.604255249680136E+001	3.3250427E+000	-4.9464738E-006	2.2814984E+002	1.2270119E+000	1.000000000000000E+000	12	1.3196725E-001	2.4689146E-004	-3.118235957892527E-005	1.3194275E-003	1.8658163E-003	1.3720001E-004	1.8708539E-003	4.2055902E+000	-1.236476583613339E-008
1.5857576E+001	5.3545306E+002	4.0795448E+001	5.3700488E+002	-4.3568716E+000	6.676391858444549E+001	3.3250365E+000	5.8707021E-005	2.4602066E+002	1.4198372E+000	1.000000000000000E+000	12	1.3196829E-001	2.4574876E-004	-3.217486839354367E-005	1.0786868E-003	1.8567991E-003	1.4146704E-004	1.8621804E-003	4.3568716E+000	-9.925088146184021E-007
1.4118974E+001	5.3805359E+002	4.2540691E+001	5.3973267E+002	-4.5206318E+000	6.756622139588580E+001	3.3250549E+000	-2.1395010E-005	2.6497961E+002	1.6461301E+000	1.000000000000000E+000	12	1.3197392E-001	2.4451720E-004	-3.193746532268556E-005	1.4799214E-003	1.8470051E-003	1.4603169E-004	1.8527691E-003	4.5206318E+000	2.374030708581079E-007
1.2600808E+001	5.4067377E+002	4.4363316E+001	5.4249078E+002	-4.6907201E+000	6.845687442485360E+001	3.3250427E+000	-6.0728653E-005	2.8470676E+002	1.9039741E+000	1.000000000000000E+000	12	1.3197057E-001	2.4326784E-004	-3.110821022468392E-005	2.0416500E-003	1.8371752E-003	1.5074374E-004	1.8433493E-003	4.6907201E+000	8.292550980016435E-007
1.1224856E+001	5.4351886E+002	4.6337631E+001	5.4549054E+002	-4.8729610E+000	6.914091277736588E+001	3.3250368E+000	1.1707983E-005	3.0598877E+002	2.2079983E+000	1.000000000000000E+000	12	1.3197368E-001	2.4193579E-004	-3.268549255763901E-005	9.9843985E-004	1.8265862E-003	1.5572537E-004	1.8332123E-003	4.8729610E+000	-1.577282332955086E-006
1.0003201E+001	5.4637988E+002	4.8471996E+001	5.4852576E+002	-5.0697131E+000	6.990171318683861E+001	3.3250508E+000	-3.2087562E-005	3.2823904E+002	2.5631735E+000	1.000000000000000E+000	12	1.3196902E-001	2.4058855E-004	-3.174965536149729E-005	1.6404153E-003	1.8159365E-003	1.6110050E-004	1.8230685E-003	5.0697131E+000	9.358371961417207E-007
8.9183798E+000	5.4949548E+002	5.0718182E+001	5.5183118E+002	-5.2734327E+000	7.074403816016275E+001	3.3250363E+000	-3.7750568E-005	3.5186050E+002	2.9722505E+000	1.000000000000000E+000	12	1.3196810E-001	2.3914577E-004	-3.205825133774791E-005	1.8009092E-003	1.8044784E-003	1.6655252E-004	1.8121484E-003	5.2734327E+000	-3.085959762506206E-007
7.9395342E+000	5.5278485E+002	5.3099773E+001	5.5532935E+002	-5.4869208E+000	7.168169769805536E+001	3.3250422E+000	-2.3956170E-005	3.7751346E+002	3.4515688E+000	1.000000000000000E+000	12	1.3196906E-001	2.3764108E-004	-3.138305542477671E-005	1.8811561E-003	1.7924824E-003	1.7218346E-004	1.8007333E-003	5.4869208E+000	6.751959129711990E-007
7.0765405E+000	5.5621692E+002	5.5631435E+001	5.5899207E+002	-5.7115870E+000	7.224004508455982E+001	3.3250155E+000	-3.1342352E-005	4.0427686E+002	4.0041294E+000	1.000000000000000E+000	12	1.3197201E-001	2.3608924E-004	-3.107788469117218E-005	1.3194275E-003	1.7800529E-003	1.7803647E-004	1.7889341E-003	5.7115870E+000	3.051707336045254E-007
6.3105822E+000	5.5977234E+002	5.8079231E+001	5.6277728E+002	-5.9235334E+000	7.286019682066399E+001	3.3250048E+000	2.3828540E-004	4.3424002E+002	4.6248584E+000	1.000000000000000E+000	12	1.3195729E-001	2.3447517E-004	-3.038834666793648E-005	1.1589337E-003	1.7674142E-003	1.8337822E-004	1.7769019E-003	5.9235334E+000	6.895380232357042E-007
5.6205034E+000	5.6342969E+002	6.0931698E+001	5.6671484E+002	-6.1722236E+000	7.354566538659128E+001	3.3250332E+000	3.7954454E-004	4.6473102E+002	5.3722849E+000	1.000000000000000E+000	12	1.3197191E-001	2.3287180E-004	-3.042383017903416E-005	1.3194275E-003	1.7543271E-003	1.8972043E-004	1.7645558E-003	6.1722236E+000	-3.548351109768484E-008
5.0144415E+000	5.6723022E+002	6.3998508E+001	5.7082916E+002	-6.4372501E+000	7.430318203588831E+001	3.3250668E+000	4.9260067E-004	4.9593839E+002	6.2338324E+000	1.000000000000000E+000	12	1.3196966E-001	2.3118942E-004	-3.258287190518665E-005	1.2391806E-003	1.7407928E-003	1.9640727E-004	1.7518377E-003	6.4372501E+000	-2.159041726152485E-006
4.4693937E+000	5.7164728E+002	6.7143745E+001	5.7557703E+002	-6.6990724E+000	7.514451010248740E+001	3.3250430E+000	4.7045982E-005	5.3035413E+002	7.2172236E+000	1.000000000000000E+000	12	1.3196538E-001	2.2927493E-004	-3.450569653494091E-005	1.5601683E-003	1.7255250E-003	2.0267427E-004	1.7373869E-003	6.6990724E+000	-1.922824629754258E-006
3.9778514E+000	5.7582123E+002	7.0389336E+001	5.8010754E+002	-6.9693532E+000	7.608116014700499E+001	3.3250380E+000	-2.7515137E-004	5.6841388E+002	8.3687658E+000	1.000000000000000E+000	12	1.3196801E-001	2.2748887E-004	-3.149965338407795E-005	1.5601683E-003	1.7110812E-003	2.0916539E-004	1.7238182E-003	6.9693532E+000	3.006043150862954E-006
3.5511365E+000	5.8063440E+002	7.3891411E+001	5.8531720E+002	-7.2524657E+000	7.712240771643701E+001	3.3250365E+000	3.9054365E-005	6.0653906E+002	9.6663866E+000	1.000000000000000E+000	12	1.3196608E-001	2.2546080E-004	-2.944610268761102E-005	1.3996745E-003	1.6948066E-003	2.1568076E-004	1.7084753E-003	7.2524657E+000	2.053550696466929E-006
3.1603966E+000	5.8536548E+002	7.7547325E+001	5.9047974E+002	-7.5464172E+000	7.828423553160974E+001	3.3250415E+000	1.5739139E-004	6.4939917E+002	1.1200448E+001	1.000000000000000E+000	12	1.3196391E-001	2.2348593E-004	-3.472765982855970E-005	1.3996745E-003	1.6788702E-003	2.2241128E-004	1.6935383E-003	7.5464172E+000	-5.281557140948681E-006
2.8183618E+000	5.9053986E+002	8.1100098E+001	5.9608264E+002	-7.8196368E+000	7.957869665980979E+001	3.3250458E+000	-1.4361607E-004	6.9630896E+002	1.2889373E+001	1.000000000000000E+000	12	1.3196662E-001	2.2138981E-004	-3.202928009396722E-005	1.7206622E-003	1.6620200E-003	2.2824875E-004	1.6776198E-003	7.8196368E+000	2.698379734592485E-006
2.5136740E+000	5.9602509E+002	8.5241486E+001	6.0208972E+002	-8.1390562E+000	8.102271414172719E+001	3.3250465E+000	2.3977611E-005	7.4277997E+002	1.4888117E+001	1.000000000000000E+000	12	1.3196617E-001	2.1918025E-004	-2.901596213709187E-005	1.1589337E-003	1.6441526E-003	2.3514112E-004	1.6608820E-003	8.1390562E+000	3.013317956875350E-006
2.2398219E+000	6.0156946E+002	8.9437965E+001	6.0818170E+002	-8.4564705E+000	8.263732787172194E+001	3.3250477E+000	1.1905844E-004	7.9448315E+002	1.7181530E+001	1.000000000000000E+000	12	1.3196380E-001	2.1698089E-004	-3.643905712716211E-005	1.3996745E-003	1.6263691E-003	2.4179941E-004	1.6442455E-003	8.4564705E+000	-7.423094990070243E-006
1.9970604E+000	6.0742499E+002	9.3659760E+001	6.1460333E+002	-8.7654896E+000	8.444073318407754E+001	3.3250482E+000	-1.5976714E-004	8.5089484E+002	1.9760237E+001	1.000000000000000E+000	12	1.3196436E-001	2.1471467E-004	-2.817175722224278E-005	1.1589337E-003	1.6080622E-003	2.4794947E-004	1.6270657E-003	8.7654896E+000	8.267299904919330E-006
1.7796129E+000	6.1386353E+002	9.8130043E+001	6.2165741E+002	-9.0822573E+000	8.645891789323650E+001	3.3250501E+000	1.4093904E-004	9.1136554E+002	2.2708809E+001	1.000000000000000E+000	12	1.3196485E-001	2.1227905E-004	-3.351597150088390E-005	1.1589337E-003	1.5884356E-003	2.5392167E-004	1.6086031E-003	9.0822573E+000	-5.344214278641121E-006
1.5846854E+000	6.2060773E+002	1.0296929E+002	6.2909192E+002	-9.4205179E+000	8.871801522720489E+001	3.3250556E+000	-7.1793780E-005	9.7536993E+002	2.6131033E+001	1.000000000000000E+000	12	1.3196652E-001	2.0977302E-004	-3.338904923986552E-005	1.3194275E-003	1.5681549E-003	2.6018335E-004	1.5895928E-003	9.4205179E+000	1.269222610183804E-007
1.4122382E+000	6.2754156E+002	1.0812959E+002	6.3678912E+002	-9.7764463E+000	9.124721417398541E+001	3.3250542E+000	-2.7812959E-005	1.0422396E+003	3.0051449E+001	1.000000000000000E+000	12	1.3196369E-001	2.0723295E-004	-2.758494631103834E-005	1.5601683E-003	1.5475731E-003	2.6665718E-004	1.5703785E-003	9.7764463E+000	5.804102928827182E-006
1.2596743E+000	6.3471680E+002	1.1337120E+002	6.4476233E+002	-1.0127201E+001	9.407589638835634E+001	3.3250566E+000	9.7140633E-005	1.1144462E+003	3.4456036E+001	1.000000000000000E+000	12	1.3196474E-001	2.0467192E-004	-3.864247506834504E-005	1.1589337E-003	1.5267949E-003	2.7271148E-004	1.5509591E-003	1.0127201E+001	-1.105752875730670E-005
1.1224856E+000	6.4233618E+002	1.1881480E+002	6.5323254E+002	-1.0479717E+001	9.724417237882153E+001	3.3250515E+000	-1.3322393E-004	1.1933527E+003	3.9479736E+001	1.000000000000000E+000	12	1.3196519E-001	2.0201869E-004	-2.378897967767878E-005	1.3194275E-003	1.5053129E-003	2.7844211E-004	1.5308484E-003	1.0479717E+001	1.485349539066626E-005
1.0000638E+000	6.5040900E+002	1.2452704E+002	6.6222266E+002	-1.0838660E+001	1.007932075874123E+002	3.3250480E+000	1.4083520E-004	1.2779939E+003	4.5190590E+001	1.000000000000000E+000	12	1.3196416E-001	1.9927461E-004	-4.074649712198293E-005	1.4799214E-003	1.4831274E-003	2.8395897E-004	1.5100661E-003	1.0838660E+001	-1.695751744430415E-005