EC-Lab ASCII FILE
Nb header lines : 60                          

Potentio Electrochemical Impedance Spectroscopy

Run on channel : 12 (SN 41430)
User : 
CE vs. WE compliance from -10 V to 10 V
Electrode connection : standard
Ewe ctrl range : min = -5.00 V, max = 5.00 V
Acquisition started on : 12/03/2020 16:52:47
Technique started on : 12/03/2020 16:52:48
Saved on :
	File : DE_206_12_30.mpr
	Directory : P:\Chemistry\Data\VMP3\Kyler\DOE\DE_206\
	Host : 10.0.4.64
Device : VMP3 (SN 1432)
Address : USB
EC-Lab for windows v11.33 (software)
Internet server v11.32 (firmware)
Command interpretor v11.33 (firmware)
Electrode material : 
Initial state : 
Electrolyte : 
Comments : 
Electrode surface area : 0.001 cm²
Characteristic mass : 0.001 g
Equivalent Weight : 0.000 g/eq.
Density : 0.000 g/cm3
Record Analogic IN 1
Cycle Definition : Charge/Discharge alternance
Mode                Single sine         
E (V)               0.0000              
vs.                 Eoc                 
tE (h:m:s)          0:00:0.0000         
record              0                   
dI                  1.000               
unit dI             mA                  
dt (s)              0.000               
fi                  1.000               
unit fi             MHz                 
ff                  1.000               
unit ff             Hz                  
Nd                  20                  
Points              per decade          
spacing             Logarithmic         
Va (mV)             128.0               
pw                  0.50                
Na                  3                   
corr                0                   
E range min (V)     -5.000              
E range max (V)     5.000               
I Range             Auto                
Bandwidth           5                   
nc cycles           0                   
goto Ns'            0                   
nr cycles           0                   
inc. cycle          1                   

freq/Hz	Re(Z)/Ohm	-Im(Z)/Ohm	|Z|/Ohm	Phase(Z)/deg	time/s	<Ewe>/V	<I>/mA	Cs/µF	Cp/µF	cycle number	I Range	|Ewe|/V	|I|/A	(Q-Qo)/mA.h	Analog IN 1/V	Re(Y)/Ohm-1	Im(Y)/Ohm-1	|Y|/Ohm-1	Phase(Y)/deg	dq/mA.h	
1.0000186E+006	2.1520309E+002	-8.2033575E+002	8.4809381E+002	7.5300522E+001	1.405477346706903E+000	3.3162019E+000	2.8274239E-003	-1.9400835E-004	-1.8151641E-004	1.000000000000000E+000	12	7.0930528E-004	8.3635240E-007	6.819844230752400E-007	-3.9114794E-004	2.9919937E-004	-1.1405224E-003	1.1791148E-003	-7.5300522E+001	6.819844230752400E-007
8.9124669E+005	9.0160614E+001	3.5014690E+001	9.6721069E+001	-2.1224131E+001	2.304490056092618E+000	3.3156033E+000	2.4618036E-003	5.1000207E-003	6.6839060E-004	1.000000000000000E+000	11	7.5959903E-004	7.8535013E-006	1.080566114091602E-006	-6.3154369E-004	9.6377283E-003	3.7428988E-003	1.0339009E-002	2.1224131E+001	3.985816910163622E-007
7.9433269E+005	9.3233475E+001	3.3546478E+001	9.9085052E+001	-1.9789316E+001	2.900495124427835E+000	3.3153036E+000	1.7237089E-003	5.9727011E-003	6.8461802E-004	1.000000000000000E+000	11	1.8840755E-003	1.9014729E-005	1.374705735965108E-006	-1.5075220E-004	9.4963256E-003	3.4168875E-003	1.0092339E-002	1.9789316E+001	2.941396218735058E-007
7.0794981E+005	9.7275818E+001	3.2553158E+001	1.0257822E+002	-1.8502714E+001	3.495476432639407E+000	3.3151402E+000	1.3659302E-003	6.9059674E-003	6.9550524E-004	1.000000000000000E+000	11	3.6163933E-003	3.5254980E-005	1.412215443540643E-006	-3.1101602E-004	9.2447363E-003	3.0937325E-003	9.7486582E-003	1.8502714E+001	3.750970757553455E-008
6.3095681E+005	1.0069418E+002	3.1808950E+001	1.0559889E+002	-1.7531151E+001	4.091493660962442E+000	3.3150475E+000	1.2098562E-003	7.9299631E-003	7.1953365E-004	1.000000000000000E+000	11	6.0436912E-003	5.7232523E-005	1.618603427852981E-006	-3.9114794E-004	9.0299556E-003	2.8525325E-003	9.4697960E-003	1.7531151E+001	2.063879843123384E-007
5.6234225E+005	1.0384632E+002	3.1027975E+001	1.0838263E+002	-1.6635485E+001	4.686493155924836E+000	3.3149662E+000	1.0334810E-003	9.1214944E-003	7.4757281E-004	1.000000000000000E+000	11	9.2257904E-003	8.5122410E-005	1.834702652501518E-006	-1.5075220E-004	8.8403970E-003	2.6413996E-003	9.2265708E-003	1.6635485E+001	2.160992246485370E-007
5.0120619E+005	1.0699265E+002	3.0222206E+001	1.1117917E+002	-1.5773392E+001	5.283485584281152E+000	3.3149428E+000	1.0301301E-003	1.0506972E-002	7.7639555E-004	1.000000000000000E+000	11	1.3256741E-002	1.1923763E-004	2.139999033202508E-006	-3.1101602E-004	8.6557977E-003	2.4450028E-003	8.9944908E-003	1.5773392E+001	3.052963807009899E-007
4.4668572E+005	1.0977660E+002	2.9346624E+001	1.1363154E+002	-1.4966917E+001	5.879481292591663E+000	3.3149164E+000	9.9735125E-004	1.2141151E-002	8.0980122E-004	1.000000000000000E+000	11	1.8095411E-002	1.5924638E-004	2.656305857356832E-006	-1.5075220E-004	8.5018221E-003	2.2727957E-003	8.8003734E-003	1.4966917E+001	5.163068241543241E-007
3.9810347E+005	1.1238801E+002	2.8398024E+001	1.1592028E+002	-1.4180587E+001	6.475472734222421E+000	3.3148735E+000	9.1335509E-004	1.4077842E-002	8.4487692E-004	1.000000000000000E+000	11	2.3828855E-002	2.0556244E-004	3.040152858603202E-006	-5.5141177E-004	8.3637517E-003	2.1133395E-003	8.6266184E-003	1.4180587E+001	3.838470012463703E-007
3.5480997E+005	1.1473322E+002	2.7487585E+001	1.1797999E+002	-1.3472883E+001	7.070493455830729E+000	3.3148606E+000	9.6159452E-004	1.6318781E-002	8.8581740E-004	1.000000000000000E+000	11	3.0406510E-002	2.5772600E-004	3.620628185419062E-006	-6.3154369E-004	8.2427561E-003	1.9747852E-003	8.4760133E-003	1.3472883E+001	5.804753268158594E-007
3.1622997E+005	1.1695742E+002	2.6549572E+001	1.1993298E+002	-1.2789517E+001	7.665472230728483E+000	3.3147964E+000	7.8000687E-004	1.8956563E-002	9.2896086E-004	1.000000000000000E+000	11	3.7962656E-002	3.1653227E-004	2.987755899091199E-006	-3.9114794E-004	8.1311241E-003	1.8457817E-003	8.3379904E-003	1.2789517E+001	-6.328722863278623E-007
2.8183453E+005	1.1901164E+002	2.5594061E+001	1.2173260E+002	-1.2136898E+001	8.260479165677680E+000	3.3147409E+000	6.5131101E-004	2.2064125E-002	9.7532931E-004	1.000000000000000E+000	11	4.6506148E-002	3.8203527E-004	2.176690342342934E-006	-1.5075220E-004	8.0311112E-003	1.7271314E-003	8.2147261E-003	1.2136898E+001	-8.110655567482657E-007
2.5118764E+005	1.2091894E+002	2.4605520E+001	1.2339700E+002	-1.1501949E+001	8.856476820626995E+000	3.3146980E+000	6.3324504E-004	2.5750717E-002	1.0238709E-003	1.000000000000000E+000	11	5.6119204E-002	4.5478580E-004	2.644315474391786E-006	-3.9114794E-004	7.9411808E-003	1.6159329E-003	8.1039248E-003	1.1501949E+001	4.676251320488519E-007
2.2387173E+005	1.2269250E+002	2.3636818E+001	1.2494859E+002	-1.0904488E+001	9.451484155579237E+000	3.3146346E+000	3.4922248E-004	3.0076817E-002	1.0763343E-003	1.000000000000000E+000	11	6.6737831E-002	5.3412234E-004	2.753535906302406E-006	-5.5141177E-004	7.8587830E-003	1.5140015E-003	8.0032917E-003	1.0904488E+001	1.092204319106208E-007
1.9954350E+005	1.2436375E+002	2.2693644E+001	1.2641734E+002	-1.0341435E+001	1.004849786389968E+001	3.3146746E+000	8.1223471E-004	3.5146195E-002	1.1325921E-003	1.000000000000000E+000	11	7.8402475E-002	6.2018767E-004	2.957867375701123E-006	-3.9114794E-004	7.7818083E-003	1.4200086E-003	7.9103075E-003	1.0341435E+001	2.043314693987162E-007
1.7783180E+005	1.2593769E+002	2.1783978E+001	1.2780784E+002	-9.8135881E+000	1.064449007887742E+001	3.3146665E+000	7.6362828E-004	4.1084077E-002	1.1935289E-003	1.000000000000000E+000	11	9.1091596E-002	7.1272306E-004	3.028361976534749E-006	8.9643538E-005	7.7097574E-003	1.3335894E-003	7.8242458E-003	9.8135881E+000	7.049460083362643E-008
1.5848613E+005	1.2741689E+002	2.0903366E+001	1.2912015E+002	-9.3166628E+000	1.124047674718895E+001	3.3146188E+000	5.7310035E-004	4.8041068E-002	1.2590908E-003	1.000000000000000E+000	11	1.0474690E-001	8.1123592E-004	2.358585500054889E-006	-3.9114794E-004	7.6425616E-003	1.2537998E-003	7.7447249E-003	9.3166628E+000	-6.697764764798600E-007
1.4125594E+005	1.2880325E+002	2.0050045E+001	1.3035445E+002	-8.8478880E+000	1.170048791568843E+001	3.3146400E+000	7.8579574E-004	5.6195047E-002	1.3294654E-003	1.000000000000000E+000	11	1.1942882E-001	9.1618526E-004	1.955371408192958E-006	-5.5141177E-004	7.5801034E-003	1.1799502E-003	7.6713916E-003	8.8478880E+000	-4.032140918619308E-007
1.2590930E+005	1.3012967E+002	1.9227840E+001	1.3154254E+002	-8.4051552E+000	1.216048009754741E+001	3.3146327E+000	8.0535212E-004	6.5740325E-002	1.4046250E-003	1.000000000000000E+000	11	1.3517931E-001	1.0276471E-003	2.605643573229221E-006	-1.5075220E-004	7.5204507E-003	1.1112150E-003	7.6021035E-003	8.4051552E+000	6.502721650362624E-007
1.1220494E+005	1.3138828E+002	1.8443859E+001	1.3267650E+002	-7.9907808E+000	1.275648060589447E+001	3.3146403E+000	5.3007674E-004	7.6905318E-002	1.4861819E-003	1.000000000000000E+000	11	1.2997384E-001	9.7962969E-004	1.832846967128312E-006	-4.7127984E-004	7.4639479E-003	1.0477648E-003	7.5371298E-003	7.9907808E+000	-7.727966061009083E-007
1.0000371E+005	1.3257825E+002	1.7680233E+001	1.3375194E+002	-7.5959740E+000	1.335248348754249E+001	3.3147569E+000	1.1081852E-003	9.0015233E-002	1.5728663E-003	1.000000000000000E+000	11	1.2985173E-001	9.7083993E-004	1.751042415481707E-006	-7.9180748E-004	7.4109193E-003	9.8829775E-004	7.4765272E-003	7.5959740E+000	-8.180455164660494E-008
8.9129305E+004	1.3369032E+002	1.6954786E+001	1.3476115E+002	-7.2277427E+000	1.394848831582931E+001	3.3147993E+000	1.2184473E-003	1.0531914E-001	1.6671033E-003	1.000000000000000E+000	11	1.2972529E-001	9.6263125E-004	1.395095281742720E-006	-6.3154369E-004	7.3615718E-003	9.3360437E-004	7.4205361E-003	7.2277427E+000	-3.559471337389874E-007
7.9433273E+004	1.3475200E+002	1.6271492E+001	1.3573085E+002	-6.8852096E+000	1.454348165073316E+001	3.3148606E+000	1.3924014E-003	1.2313750E-001	1.7696522E-003	1.000000000000000E+000	11	1.2958087E-001	9.5468992E-004	1.601629567523358E-006	-3.9114794E-004	7.3143896E-003	8.8322267E-004	7.3675220E-003	6.8852096E+000	2.065342857806374E-007
7.0794977E+004	1.3574467E+002	1.5616997E+001	1.3664006E+002	-6.5628457E+000	1.513948210570379E+001	3.3148606E+000	1.2089482E-003	1.4395282E-001	1.8804384E-003	1.000000000000000E+000	11	1.2950073E-001	9.4775081E-004	3.216550768062007E-006	-1.5075220E-004	7.2705406E-003	8.3645282E-004	7.3184981E-003	6.5628457E+000	1.614921200538649E-006
6.3093828E+004	1.3668930E+002	1.5005710E+001	1.3751050E+002	-6.2648263E+000	1.573549298735452E+001	3.3149090E+000	1.4279739E-003	1.6810349E-001	2.0017880E-003	1.000000000000000E+000	11	1.2948585E-001	9.4164332E-004	3.306149585288949E-006	-4.7127984E-004	7.2287438E-003	7.9356926E-004	7.2721723E-003	6.2648263E+000	8.959881722694279E-008
5.6237012E+004	1.3757001E+002	1.4440696E+001	1.3832585E+002	-5.9923811E+000	1.633048013565713E+001	3.3149214E+000	1.4080449E-003	1.9597910E-001	2.1358922E-003	1.000000000000000E+000	11	1.2932038E-001	9.3489676E-004	2.183084724736141E-006	-5.5141177E-004	7.1898042E-003	7.5471227E-004	7.2293067E-003	5.9923811E+000	-1.123064860552808E-006
5.0122477E+004	1.3841341E+002	1.3918444E+001	1.3911145E+002	-5.7421918E+000	1.679048997079371E+001	3.3149273E+000	1.3767550E-003	2.2813763E-001	2.2837708E-003	1.000000000000000E+000	11	1.4030442E-001	1.0085757E-003	1.939901462358345E-006	-1.5075220E-004	7.1524102E-003	7.1922527E-004	7.1884808E-003	5.7421918E+000	-2.431832623777963E-007
4.4666715E+004	1.3920915E+002	1.3441685E+001	1.3985660E+002	-5.5152383E+000	1.738649322578567E+001	3.3149533E+000	1.4596365E-003	2.6508331E-001	2.4486342E-003	1.000000000000000E+000	11	1.3037321E-001	9.3219202E-004	2.069865935242786E-006	2.4990735E-004	7.1170805E-003	6.8720739E-004	7.1501811E-003	5.5152383E+000	1.299644728844416E-007
3.9814063E+004	1.3995792E+002	1.3022460E+001	1.4056245E+002	-5.3158116E+000	1.784648772762739E+001	3.3149514E+000	1.2782302E-003	3.0696625E-001	2.6347416E-003	1.000000000000000E+000	11	1.3951991E-001	9.9258311E-004	1.515235655701771E-006	-5.5141177E-004	7.0836782E-003	6.5910467E-004	7.1142754E-003	5.3158116E+000	-5.546302795410154E-007
3.5480996E+004	1.4067130E+002	1.2642885E+001	1.4123830E+002	-5.1356812E+000	1.844149386257050E+001	3.3149729E+000	1.4374723E-003	3.5479552E-001	2.8429262E-003	1.000000000000000E+000	11	1.3002121E-001	9.2058041E-004	2.595937605837308E-006	-2.3088411E-004	7.0518092E-003	6.3378399E-004	7.0802327E-003	5.1356812E+000	1.080701950135537E-006
3.1621143E+004	1.4135951E+002	1.2316492E+001	1.4189507E+002	-4.9795399E+000	1.890148831109400E+001	3.3149862E+000	1.3769428E-003	4.0865380E-001	3.0788961E-003	1.000000000000000E+000	11	1.3720046E-001	9.6691499E-004	3.080951826475535E-006	9.5116266E-006	7.0208623E-003	6.1171962E-004	7.0474613E-003	4.9795399E+000	4.850142206382265E-007
2.8188096E+004	1.4202078E+002	1.2049248E+001	1.4253101E+002	-4.8494434E+000	1.949648151264410E+001	3.3149912E+000	1.3333609E-003	4.6859157E-001	3.3488495E-003	1.000000000000000E+000	11	1.2958816E-001	9.0919278E-004	2.291402269872681E-006	-1.5075220E-004	6.9909017E-003	5.9311819E-004	7.0160171E-003	4.8494434E+000	-7.895495566028533E-007
2.5116910E+004	1.4265379E+002	1.1829507E+001	1.4314343E+002	-4.7403831E+000	1.995648553452338E+001	3.3150027E+000	1.3672569E-003	5.3565758E-001	3.6582863E-003	1.000000000000000E+000	11	1.3493153E-001	9.4263168E-004	1.810825974686951E-006	-3.1101602E-004	6.9621033E-003	5.7732954E-004	6.9859996E-003	4.7403831E+000	-4.805762951857306E-007
2.2389027E+004	1.4326105E+002	1.1670352E+001	1.4373561E+002	-4.6571536E+000	2.041647787639522E+001	3.3149922E+000	1.3171578E-003	6.0911733E-001	4.0155044E-003	1.000000000000000E+000	11	1.3963491E-001	9.7147055E-004	2.244679313579885E-006	-6.3154369E-004	6.9342479E-003	5.6487875E-004	6.9572181E-003	4.6571536E+000	4.338533388929340E-007
1.9948783E+004	1.4388203E+002	1.1573342E+001	1.4434674E+002	-4.5987611E+000	2.101148153128452E+001	3.3150218E+000	1.4073002E-003	6.8935817E-001	4.4314777E-003	1.000000000000000E+000	11	1.2953173E-001	8.9736510E-004	1.888034481325627E-006	-4.7127984E-004	6.9054598E-003	5.5544981E-004	6.9277631E-003	4.5987611E+000	-3.566448322542582E-007
1.7786895E+004	1.4446915E+002	1.1521927E+001	1.4492787E+002	-4.5598903E+000	2.147148432649556E+001	3.3150122E+000	1.2992779E-003	7.7659553E-001	4.9084155E-003	1.000000000000000E+000	11	1.3264287E-001	9.1523369E-004	1.296321686590090E-006	-3.1101602E-004	6.8781441E-003	5.4855639E-004	6.8999841E-003	4.5598903E+000	-5.917127947355361E-007
1.5847686E+004	1.4506628E+002	1.1532344E+001	1.4552396E+002	-4.5452871E+000	2.193148933499469E+001	3.3150232E+000	1.2759970E-003	8.7083662E-001	5.4689366E-003	1.000000000000000E+000	11	1.3529128E-001	9.2968385E-004	7.273912736127386E-007	-6.3154369E-004	6.8501094E-003	5.4456358E-004	6.8717208E-003	4.5452871E+000	-5.689304129773519E-007
1.4121879E+004	1.4567377E+002	1.1603330E+001	1.4613516E+002	-4.5541563E+000	2.239148159683100E+001	3.3150120E+000	1.3085898E-003	9.7128129E-001	6.1235153E-003	1.000000000000000E+000	11	1.3749412E-001	9.4086950E-004	1.220455313347177E-006	-3.9114794E-004	6.8213749E-003	5.4334186E-004	6.8429802E-003	4.5541563E+000	4.930640397344380E-007
1.2590932E+004	1.4627960E+002	1.1724620E+001	1.4674873E+002	-4.5825815E+000	2.285147713866900E+001	3.3150136E+000	1.3264687E-003	1.0781111E+000	6.8819625E-003	1.000000000000000E+000	11	1.3928495E-001	9.4913907E-004	6.296380495445596E-007	-7.0620285E-005	6.7925849E-003	5.4444006E-004	6.8143690E-003	4.5825815E+000	-5.908172638026169E-007
1.1217711E+004	1.4689954E+002	1.1923149E+001	1.4738261E+002	-4.6402588E+000	2.331049641381833E+001	3.3150303E+000	1.3259108E-003	1.1899396E+000	7.7877925E-003	1.000000000000000E+000	11	1.4075357E-001	9.5502153E-004	1.674767112094236E-006	-1.5075220E-004	6.7628212E-003	5.4890657E-004	6.7850607E-003	4.6402588E+000	1.045129062549677E-006
1.0002229E+004	1.4754755E+002	1.2161990E+001	1.4804794E+002	-4.7121010E+000	2.390649393547210E+001	3.3150492E+000	1.4298355E-003	1.3083341E+000	8.8292379E-003	1.000000000000000E+000	11	1.2940946E-001	8.7410514E-004	5.339529747725464E-007	-6.3154369E-004	6.7317388E-003	5.5488106E-004	6.7545688E-003	4.7121010E+000	-1.140814137321690E-006
8.9149297E+003	1.4821597E+002	1.2459168E+001	1.4873871E+002	-4.8050385E+000	2.438890638508019E+001	3.3150706E+000	1.5384174E-003	1.4328910E+000	1.0054101E-002	1.000000000000000E+000	11	1.3026957E-001	8.7582832E-004	1.307478451011573E-006	-4.7127984E-004	6.6995709E-003	5.6317198E-004	6.7231995E-003	4.8050385E+000	7.735254762390266E-007
7.9439976E+003	1.4891550E+002	1.2829759E+001	1.4946715E+002	-4.9241371E+000	2.491499425008078E+001	3.3150752E+000	1.5322713E-003	1.5615739E+000	1.1505567E-002	1.000000000000000E+000	11	1.3094622E-001	8.7608700E-004	1.020053915162053E-006	-2.3088411E-004	6.6657402E-003	5.7428435E-004	6.6904332E-003	4.9241371E+000	-2.874245358495198E-007
7.0822334E+003	1.4965375E+002	1.3250057E+001	1.5023917E+002	-5.0596657E+000	2.549185857080738E+001	3.3150933E+000	1.4972572E-003	1.6960245E+000	1.3191717E-002	1.000000000000000E+000	11	1.3148576E-001	8.7517634E-004	4.795900316094048E-007	9.5116266E-006	6.6301180E-003	5.8701797E-004	6.6560539E-003	5.0596657E+000	-5.404638835526485E-007
6.3077344E+003	1.5045868E+002	1.3723840E+001	1.5108328E+002	-5.2117181E+000	2.612553769422811E+001	3.3150978E+000	1.4359819E-003	1.8385315E+000	1.5170138E-002	1.000000000000000E+000	11	1.3192207E-001	8.7317452E-004	1.201429013036735E-006	9.5116266E-006	6.5915021E-003	6.0123298E-004	6.6188658E-003	5.2117181E+000	7.218389814273299E-007
5.6210552E+003	1.5130304E+002	1.4251989E+001	1.5197279E+002	-5.3810983E+000	2.682625719413045E+001	3.3151112E+000	1.4693192E-003	1.9866748E+000	1.7472139E-002	1.000000000000000E+000	11	1.3225228E-001	8.7023649E-004	2.019215714694130E-006	-5.5141177E-004	6.5511260E-003	6.1708328E-004	6.5801251E-003	5.3810983E+000	8.177867016573954E-007
5.0116035E+003	1.5220522E+002	1.4819403E+001	1.5292496E+002	-5.5610533E+000	2.758667021698784E+001	3.3151088E+000	1.4780724E-003	2.1429534E+000	2.0124143E-002	1.000000000000000E+000	11	1.3250785E-001	8.6648931E-004	2.978104182337928E-006	9.5116266E-006	6.5083783E-003	6.3368579E-004	6.5391548E-003	5.5610533E+000	9.588884676437980E-007
4.4664292E+003	1.5318839E+002	1.5424374E+001	1.5396295E+002	-5.7496724E+000	2.834570419970260E+001	3.3151078E+000	1.4240614E-003	2.3102136E+000	2.3186477E-002	1.000000000000000E+000	11	1.3270289E-001	8.6191442E-004	2.616480565118966E-006	-2.3088411E-004	6.4623933E-003	6.5069145E-004	6.4950692E-003	5.7496724E+000	-3.616236172189623E-007
3.9812742E+003	1.5423990E+002	1.6076880E+001	1.5507550E+002	-5.9506207E+000	2.910569954246603E+001	3.3151145E+000	1.5484734E-003	2.4865448E+000	2.6724735E-002	1.000000000000000E+000	11	1.3285238E-001	8.5669482E-004	3.414233495520118E-006	2.4990735E-004	6.4137252E-003	6.6852156E-004	6.4484719E-003	5.9506207E+000	7.977529304011518E-007
3.5465955E+003	1.5538609E+002	1.6752739E+001	1.5628658E+002	-6.1534972E+000	2.986594693854568E+001	3.3151090E+000	1.4665248E-003	2.6786914E+000	3.0778749E-002	1.000000000000000E+000	11	1.3296114E-001	8.5075217E-004	3.713509140277488E-006	-3.1101602E-004	6.3616359E-003	6.8587105E-004	6.3985023E-003	6.1534972E+000	2.992756447573707E-007
3.1610112E+003	1.5661458E+002	1.7459887E+001	1.5758481E+002	-6.3612471E+000	3.062566601466096E+001	3.3151031E+000	1.4579585E-003	2.8837173E+000	3.5400290E-002	1.000000000000000E+000	11	1.3304049E-001	8.4424694E-004	4.009005084556217E-006	9.5116266E-006	6.3067190E-003	7.0309290E-004	6.3457894E-003	6.3612471E+000	2.954959442787290E-007
2.8172952E+003	1.5792674E+002	1.8158802E+001	1.5896729E+002	-6.5592031E+000	3.138597034409759E+001	3.3151057E+000	1.4253645E-003	3.1110041E+000	4.0593777E-002	1.000000000000000E+000	11	1.3309461E-001	8.3724526E-004	5.075492176861088E-006	-5.5141177E-004	6.2494264E-003	7.1857427E-004	6.2906025E-003	6.5592031E+000	1.066487092304871E-006
2.5108032E+003	1.5935721E+002	1.8864313E+001	1.6046988E+002	-6.7511153E+000	3.214568318019155E+001	3.3151078E+000	1.4266684E-003	3.3602104E+000	4.6436705E-002	1.000000000000000E+000	11	1.3313662E-001	8.2966732E-004	5.502774263732135E-006	-7.0620285E-005	6.1884895E-003	7.3257816E-004	6.2316991E-003	6.7511153E+000	4.272820868710469E-007
2.2378516E+003	1.6086006E+002	1.9544865E+001	1.6204309E+002	-6.9276109E+000	3.290593814960448E+001	3.3151073E+000	1.3726556E-003	3.6387832E+000	5.2937143E-002	1.000000000000000E+000	11	1.3315472E-001	8.2172413E-004	5.336508396995163E-006	-4.7127984E-004	6.1261444E-003	7.4434053E-004	6.1711981E-003	6.9276109E+000	-1.662658667369721E-007
1.9956389E+003	1.6247121E+002	2.0191797E+001	1.6372112E+002	-7.0843511E+000	3.366569565238751E+001	3.3150949E+000	1.3206939E-003	3.9496918E+000	6.0076382E-002	1.000000000000000E+000	11	1.3317248E-001	8.1341056E-004	6.265681520099154E-006	-5.5141177E-004	6.0613179E-003	7.5329590E-004	6.1079478E-003	7.0843511E+000	9.291731231039906E-007
1.7782927E+003	1.6416998E+002	2.0804407E+001	1.6548296E+002	-7.2222981E+000	3.442594520849525E+001	3.3151085E+000	1.3273987E-003	4.3019118E+000	6.7993231E-002	1.000000000000000E+000	11	1.3316835E-001	8.0472551E-004	5.881830539399137E-006	-7.0620285E-005	5.9949728E-003	7.5971161E-004	6.0429182E-003	7.2222981E+000	-3.838509807000163E-007
1.5855076E+003	1.6596504E+002	2.1347799E+001	1.6733238E+002	-7.3296108E+000	3.518568628458888E+001	3.3151052E+000	1.3160359E-003	4.7021742E+000	7.6532327E-002	1.000000000000000E+000	11	1.3317612E-001	7.9587777E-004	5.765946990344674E-006	-7.0620285E-005	5.9272968E-003	7.6241797E-004	5.9761298E-003	7.3296108E+000	-1.158835490544638E-007
1.4118373E+003	1.6784561E+002	2.1826139E+001	1.6925876E+002	-7.4089975E+000	3.594719797404832E+001	3.3151112E+000	1.3387576E-003	5.1648602E+000	8.5883580E-002	1.000000000000000E+000	11	1.3316578E-001	7.8675855E-004	5.512214967301891E-006	-5.5141177E-004	5.8587864E-003	7.6185912E-004	5.9081139E-003	7.4089975E+000	-2.537320230427824E-007
1.2587914E+003	1.6977310E+002	2.2226139E+001	1.7122180E+002	-7.4585581E+000	3.670695766349672E+001	3.3151145E+000	1.2981566E-003	5.6885600E+000	9.5854446E-002	1.000000000000000E+000	11	1.3315836E-001	7.7769510E-004	5.174213868963610E-006	-7.1167562E-004	5.7909624E-003	7.5813389E-004	5.8403779E-003	7.4585581E+000	-3.380010983382816E-007
1.1217948E+003	1.7176909E+002	2.2520369E+001	1.7323911E+002	-7.4693542E+000	3.746544788617757E+001	3.3151109E+000	1.3434141E-003	6.2998643E+000	1.0646094E-001	1.000000000000000E+000	11	1.3314883E-001	7.6858420E-004	5.809435621259683E-006	-3.1101602E-004	5.7233879E-003	7.5038418E-004	5.7723690E-003	7.4693542E+000	6.352217522960732E-007
1.0003201E+003	1.7377330E+002	2.2715658E+001	1.7525171E+002	-7.4474792E+000	3.822470976226759E+001	3.3151162E+000	1.4108354E-003	7.0041561E+000	1.1767439E-001	1.000000000000000E+000	11	1.3313055E-001	7.5965334E-004	5.547553185680752E-006	-7.0620285E-005	5.6579425E-003	7.3960656E-004	5.7060784E-003	7.4474792E+000	-2.618824355789308E-007
8.9142657E+002	1.7580861E+002	2.2820520E+001	1.7728351E+002	-7.3958235E+000	3.898242891821428E+001	3.3151116E+000	1.3599903E-003	7.8236423E+000	1.2963533E-001	1.000000000000000E+000	11	1.3311976E-001	7.5088633E-004	5.179747486732796E-006	-7.0620285E-005	5.5937553E-003	7.2608737E-004	5.6406828E-003	7.3958235E+000	-3.678056989479555E-007
7.9423773E+002	1.7785371E+002	2.2812122E+001	1.7931073E+002	-7.3090444E+000	3.974194756764336E+001	3.3151073E+000	1.2989010E-003	8.7842350E+000	1.4217484E-001	1.000000000000000E+000	11	1.3311157E-001	7.4235135E-004	5.915844427421689E-006	-3.1101602E-004	5.5315951E-003	7.0950121E-004	5.5769109E-003	7.3090444E+000	7.360969406888927E-007
7.0750946E+002	1.7989316E+002	2.2696659E+001	1.8131929E+002	-7.1908674E+000	4.050447592380806E+001	3.3151152E+000	1.3203199E-003	9.9111938E+000	1.5529655E-001	1.000000000000000E+000	11	1.3310145E-001	7.3407218E-004	5.554189969463753E-006	-2.3088411E-004	5.4717548E-003	6.9035729E-004	5.5151330E-003	7.1908674E+000	-3.616544579579364E-007
6.3100964E+002	1.8185233E+002	2.2487783E+001	1.8323747E+002	-7.0493851E+000	4.126242891981383E+001	3.3151200E+000	1.2920101E-003	1.1215986E+001	1.6892822E-001	1.000000000000000E+000	11	1.3308704E-001	7.2630908E-004	5.302129232148420E-006	8.9643538E-005	5.4161451E-003	6.6975824E-004	5.4573989E-003	7.0493851E+000	-2.520607373153324E-007
5.6233929E+002	1.8378160E+002	2.2195475E+001	1.8511703E+002	-6.8863134E+000	4.201891215579235E+001	3.3151119E+000	1.3398742E-003	1.2751382E+001	1.8331304E-001	1.000000000000000E+000	11	1.3308166E-001	7.1890553E-004	5.640625305863473E-006	-2.3088411E-004	5.3630183E-003	6.4769667E-004	5.4019880E-003	6.8863134E+000	3.384960737150524E-007
5.0144415E+002	1.8563728E+002	2.1827652E+001	1.8691615E+002	-6.7061753E+000	4.277620045843651E+001	3.3151162E+000	1.2949893E-003	1.4540874E+001	1.9829461E-001	1.000000000000000E+000	11	1.3307446E-001	7.1194739E-004	5.433841473679220E-006	1.6977545E-004	5.3133881E-003	6.2476023E-004	5.3499923E-003	6.7061753E+000	-2.067838321842526E-007
4.4685895E+002	1.8742012E+002	2.1401194E+001	1.8863805E+002	-6.5142946E+000	4.353293644104269E+001	3.3151128E+000	1.3089565E-003	1.6642237E+001	2.1420476E-001	1.000000000000000E+000	11	1.3305978E-001	7.0537085E-004	6.140939021728829E-006	-3.1101602E-004	5.2669309E-003	6.0142210E-004	5.3011575E-003	6.5142946E+000	7.070975480496094E-007
3.9808920E+002	1.8912964E+002	2.0921236E+001	1.9028326E+002	-6.3123093E+000	4.429569157062360E+001	3.3151062E+000	1.2320366E-003	1.9109634E+001	2.3100740E-001	1.000000000000000E+000	11	1.3305333E-001	6.9923821E-004	6.781206513971685E-006	-3.9114794E-004	5.2234619E-003	5.7781144E-004	5.2553229E-003	6.3123093E+000	6.402674922428561E-007
3.5465955E+002	1.9074844E+002	2.0419580E+001	1.9183829E+002	-6.1102314E+000	4.505593630005023E+001	3.3151104E+000	1.2752459E-003	2.1976658E+001	2.4899162E-001	1.000000000000000E+000	11	1.3304733E-001	6.9353898E-004	6.947624402075437E-006	-4.7127984E-004	5.1831100E-003	5.5485079E-004	5.2127237E-003	6.1102314E+000	1.664178881037517E-007
3.1631586E+002	1.9225754E+002	1.9910992E+001	1.9328583E+002	-5.9127107E+000	4.581290185599937E+001	3.3151126E+000	1.2761767E-003	2.5270060E+001	2.6815879E-001	1.000000000000000E+000	11	1.3304201E-001	6.8831746E-004	7.454683228392645E-006	-3.1101602E-004	5.1461612E-003	5.3295784E-004	5.1736850E-003	5.9127107E+000	5.070588263172080E-007
2.8189429E+002	1.9368018E+002	1.9400240E+001	1.9464938E+002	-5.7200308E+000	4.656840714518330E+001	3.3151095E+000	1.2294288E-003	2.9102262E+001	2.8909120E-001	1.000000000000000E+000	11	1.3303791E-001	6.8347459E-004	7.261274093421283E-006	-5.5141177E-004	5.1118620E-003	5.1203667E-004	5.1374426E-003	5.7200308E+000	-1.934091349713622E-007
2.5104436E+002	1.9505453E+002	1.8904043E+001	1.9596846E+002	-5.5356297E+000	4.732493054115912E+001	3.3151112E+000	1.2784111E-003	3.3536285E+001	3.1206998E-001	1.000000000000000E+000	11	1.3303320E-001	6.7885005E-004	6.938958655576345E-006	-3.1101602E-004	5.0790645E-003	4.9224618E-004	5.1028621E-003	5.5356297E+000	-3.223154378449385E-007
2.2392513E+002	1.9632668E+002	1.8462679E+001	1.9719289E+002	-5.3723297E+000	4.808773300406756E+001	3.3151100E+000	1.2327804E-003	3.8496620E+001	3.3746564E-001	1.000000000000000E+000	11	1.3302872E-001	6.7461212E-004	6.749775303724972E-006	9.5116266E-006	5.0489004E-003	4.7480164E-004	5.0711767E-003	5.3723297E+000	-1.891833518513724E-007
1.9955299E+002	1.9755469E+002	1.8029234E+001	1.9837567E+002	-5.2144823E+000	4.884921082688379E+001	3.3151100E+000	1.2437697E-003	4.4236893E+001	3.6539477E-001	1.000000000000000E+000	11	1.3303003E-001	6.7059649E-004	7.569084746229540E-006	-3.9114794E-004	5.0200787E-003	4.5814237E-004	5.0409408E-003	5.2144823E+000	8.193094425045675E-007
1.7778128E+002	1.9871051E+002	1.7652254E+001	1.9949303E+002	-5.0764890E+000	4.961727086335304E+001	3.3151157E+000	1.2029815E-003	5.0714706E+001	3.9708075E-001	1.000000000000000E+000	11	1.3302428E-001	6.6681165E-004	8.498527259915135E-006	-7.0620285E-005	4.9930438E-003	4.4355218E-004	5.0127064E-003	5.0764890E+000	9.294425136855956E-007
1.5842838E+002	1.9981746E+002	1.7315176E+001	2.0056628E+002	-4.9525924E+000	5.038371729978826E+001	3.3151104E+000	1.2722638E-003	5.8017670E+001	4.3241248E-001	1.000000000000000E+000	11	1.3302255E-001	6.6323485E-004	8.281205121283873E-006	-1.5075220E-004	4.9672681E-003	4.3043846E-004	4.9858829E-003	4.9525924E+000	-2.173221386312624E-007
1.4131134E+002	2.0090149E+002	1.7039810E+001	2.0162282E+002	-4.8480382E+000	5.113692042886396E+001	3.3151102E+000	1.2387394E-003	6.6096481E+001	4.7209403E-001	1.000000000000000E+000	11	1.3302833E-001	6.5978809E-004	9.124506834299406E-006	9.5116266E-006	4.9420116E-003	4.1916533E-004	4.9597560E-003	4.8480382E+000	8.433017130155335E-007
1.2584569E+002	2.0194504E+002	1.6807310E+001	2.0264325E+002	-4.7575994E+000	5.189238627805025E+001	3.3151124E+000	1.3044842E-003	7.5246025E+001	5.1762557E-001	1.000000000000000E+000	11	1.3301797E-001	6.5641454E-004	8.896446792628720E-006	-1.5075220E-004	4.9177781E-003	4.0929261E-004	4.9347808E-003	4.7575994E+000	-2.280600416706864E-007
1.1218996E+002	2.0296175E+002	1.6622406E+001	2.0364130E+002	-4.6820288E+000	5.263782735350833E+001	3.3151159E+000	1.3059746E-003	8.5343857E+001	5.6862813E-001	1.000000000000000E+000	11	1.3301833E-001	6.5319921E-004	8.686384915393622E-006	-3.1101602E-004	4.8942086E-003	4.0083178E-004	4.9105952E-003	4.6820288E+000	-2.100618772350978E-007
1.0003201E+002	2.0395735E+002	1.6508673E+001	2.0462437E+002	-4.6275349E+000	5.339766898960806E+001	3.3150964E+000	1.1767191E-003	9.6376022E+001	6.2730473E-001	1.000000000000000E+000	11	1.3301471E-001	6.5004331E-004	9.231140932773188E-006	-3.1101602E-004	4.8710727E-003	3.9427337E-004	4.8870035E-003	4.6275349E+000	5.447560173795659E-007
8.9115974E+001	2.0495326E+002	1.6412592E+001	2.0560938E+002	-4.5784574E+000	5.416373734599620E+001	3.3151088E+000	1.2657449E-003	1.0881466E+002	6.9335544E-001	1.000000000000000E+000	11	1.3301817E-001	6.4694602E-004	9.783024434524122E-006	-7.0620285E-005	4.8480714E-003	3.8823200E-004	4.8635914E-003	4.5784574E+000	5.518835017509344E-007
7.9415527E+001	2.0593855E+002	1.6402626E+001	2.0659074E+002	-4.5538898E+000	5.492821127557545E+001	3.3151016E+000	1.3162170E-003	1.2218034E+002	7.7020508E-001	1.000000000000000E+000	11	1.3302217E-001	6.4389221E-004	9.529585829321554E-006	-1.5075220E-004	4.8252069E-003	3.8431885E-004	4.8404881E-003	4.5538898E+000	-2.534386052025681E-007
7.0838745E+001	2.0690010E+002	1.6428026E+001	2.0755127E+002	-4.5398045E+000	5.567936619129614E+001	3.3151035E+000	1.2372481E-003	1.3676151E+002	8.5680872E-001	1.000000000000000E+000	11	1.3301677E-001	6.4088631E-004	9.905576949502575E-006	-3.1101602E-004	4.8029702E-003	3.8135951E-004	4.8180865E-003	4.5398045E+000	3.759911201810205E-007
6.3082302E+001	2.0786481E+002	1.6513369E+001	2.0851971E+002	-4.5421991E+000	5.645982785504020E+001	3.3151078E+000	1.2720771E-003	1.5278366E+002	9.5819533E-001	1.000000000000000E+000	11	1.3301334E-001	6.3789333E-004	1.052905093792490E-005	-1.5075220E-004	4.7806478E-003	3.7978817E-004	4.7957096E-003	4.5421991E+000	6.234739884223206E-007
5.6241817E+001	2.0883917E+002	1.6649771E+001	2.0950183E+002	-4.5582829E+000	5.720331341031124E+001	3.3151088E+000	1.3350279E-003	1.6996228E+002	1.0734787E+000	1.000000000000000E+000	11	1.3301516E-001	6.3491164E-004	1.050067135522840E-005	-5.5141177E-004	4.7581303E-003	3.7934346E-004	4.7732280E-003	4.5582829E+000	-2.837958269649091E-008
5.0144413E+001	2.0980690E+002	1.6841631E+001	2.1048177E+002	-4.5894094E+000	5.796017528625089E+001	3.3151059E+000	1.3851282E-003	1.8845749E+002	1.2065706E+000	1.000000000000000E+000	11	1.3301063E-001	6.3193421E-004	1.047320508788107E-005	-5.5141177E-004	4.7357720E-003	3.8015016E-004	4.7510052E-003	4.5894094E+000	-2.746626734733505E-008
4.4671219E+001	2.1079515E+002	1.7081009E+001	2.1148607E+002	-4.6326308E+000	5.872424310925999E+001	3.3151016E+000	1.2867886E-003	2.0858295E+002	1.3606371E+000	1.000000000000000E+000	11	1.3301274E-001	6.2894326E-004	1.104801842754306E-005	8.9643538E-005	4.7129961E-003	3.8190029E-004	4.7284439E-003	4.6326308E+000	5.748133396619878E-007
3.9808922E+001	2.1179778E+002	1.7390919E+001	2.1251057E+002	-4.6940808E+000	5.948671903882496E+001	3.3151040E+000	1.3352113E-003	2.2988847E+002	1.5395761E+000	1.000000000000000E+000	11	1.3300933E-001	6.2589510E-004	1.081898067191812E-005	9.5116266E-006	4.6898648E-003	3.8508931E-004	4.7056484E-003	4.6940808E+000	-2.290377556249347E-007
3.5465305E+001	2.1280391E+002	1.7786167E+001	2.1354590E+002	-4.7776814E+000	6.023710632775328E+001	3.3151047E+000	1.2586643E-003	2.5230977E+002	1.7503154E+000	1.000000000000000E+000	11	1.3301271E-001	6.2287645E-004	1.204577180746775E-005	-6.3154369E-004	4.6665631E-003	3.9003172E-004	4.6828343E-003	4.7776814E+000	1.226791135549624E-006
3.1629551E+001	2.1384123E+002	1.8205011E+001	2.1461476E+002	-4.8660460E+000	6.096143337545800E+001	3.3151064E+000	1.3745099E-003	2.7639880E+002	1.9888356E+000	1.000000000000000E+000	11	1.3300914E-001	6.1975763E-004	1.207983894153020E-005	-3.1101602E-004	4.6427175E-003	3.9524990E-004	4.6595116E-003	4.8660460E+000	3.406713406244901E-008
2.8170074E+001	2.1490849E+002	1.8716358E+001	2.1572195E+002	-4.9773254E+000	6.176675130710646E+001	3.3150990E+000	1.3381906E-003	3.0186362E+002	2.2722952E+000	1.000000000000000E+000	11	1.3301244E-001	6.1659206E-004	1.073374263119515E-005	9.5116266E-006	4.6181162E-003	4.0219130E-004	4.6355966E-003	4.9773254E+000	-1.346096310335043E-006
2.5104435E+001	2.1597717E+002	1.9294687E+001	2.1683733E+002	-5.1050630E+000	6.252289947634563E+001	3.3151071E+000	1.2404118E-003	3.2857306E+002	2.6015930E+000	1.000000000000000E+000	11	1.3301253E-001	6.1342085E-004	1.070080256096602E-005	-2.3088411E-004	4.5934580E-003	4.1036436E-004	4.6117520E-003	5.1050630E+000	-3.294007022913683E-008
2.2385387E+001	2.1709708E+002	1.9930429E+001	2.1801001E+002	-5.2452922E+000	6.320841124220169E+001	3.3151066E+000	1.1701969E-003	3.5672937E+002	2.9813936E+000	1.000000000000000E+000	11	1.3301179E-001	6.1011780E-004	1.275472924937882E-005	-8.7193941E-004	4.5677372E-003	4.1933759E-004	4.5869453E-003	5.2452922E+000	2.053926688412806E-006
1.9955299E+001	2.1824661E+002	2.0663307E+001	2.1922261E+002	-5.4085679E+000	6.397019551842823E+001	3.3151011E+000	1.2728184E-003	3.8597757E+002	3.4291859E+000	1.000000000000000E+000	11	1.3301212E-001	6.0674449E-004	1.309136555120252E-005	-3.1101602E-004	4.5412644E-003	4.2996107E-004	4.5615733E-003	5.4085679E+000	3.366363018236969E-007
1.7796129E+001	2.1945245E+002	2.1462967E+001	2.2049953E+002	-5.5858970E+000	6.481455425181775E+001	3.3150861E+000	1.2316576E-003	4.1668210E+002	3.9479260E+000	1.000000000000000E+000	11	1.3301064E-001	6.0322415E-004	1.366307056353414E-005	-3.1101602E-004	4.5136213E-003	4.4144280E-004	4.5351572E-003	5.5858970E+000	5.717050123316260E-007
1.5857576E+001	2.2072365E+002	2.2350660E+001	2.2185239E+002	-5.7821088E+000	6.553694129950600E+001	3.3151069E+000	1.2592231E-003	4.4904819E+002	4.5576973E+000	1.000000000000000E+000	11	1.3301292E-001	5.9955596E-004	1.161354478087419E-005	-5.5141177E-004	4.4845683E-003	4.5411108E-004	4.5075016E-003	5.7821088E+000	-2.049525782659959E-006
1.4118974E+001	2.2203888E+002	2.3289715E+001	2.2325697E+002	-5.9878736E+000	6.633925944424118E+001	3.3151073E+000	1.2065148E-003	4.8400830E+002	5.2670946E+000	1.000000000000000E+000	11	1.3300824E-001	5.9576298E-004	1.463674503078477E-005	-3.1101602E-004	4.4547049E-003	4.6725516E-004	4.4791433E-003	5.9878736E+000	3.023200249910586E-006
1.2600808E+001	2.2340814E+002	2.4323206E+001	2.2472832E+002	-6.2135134E+000	6.722987532659317E+001	3.3150942E+000	1.3001967E-003	5.1927917E+002	6.0831280E+000	1.000000000000000E+000	11	1.3300613E-001	5.9185299E-004	1.450544151766614E-005	-1.5075220E-004	4.4236765E-003	4.8162075E-004	4.4498174E-003	6.2135134E+000	-1.313035131186340E-007
1.1224856E+001	2.2486292E+002	2.5445009E+001	2.2629799E+002	-6.4560061E+000	6.791391893240507E+001	3.3151011E+000	1.3750665E-003	5.5723285E+002	7.0449929E+000	1.000000000000000E+000	11	1.3300924E-001	5.8776146E-004	1.481578002089130E-005	9.5116266E-006	4.3909294E-003	4.9686822E-004	4.4189524E-003	6.4560061E+000	3.103385032251624E-007
1.0003201E+001	2.2641754E+002	2.6636566E+001	2.2797897E+002	-6.7096391E+000	6.867369307517947E+001	3.3150938E+000	1.3821448E-003	5.9731433E+002	8.1539831E+000	1.000000000000000E+000	11	1.3300268E-001	5.8339891E-004	1.121823731053963E-005	-5.5141177E-004	4.3563275E-003	5.1249389E-004	4.3863696E-003	6.7096391E+000	-3.597542710351666E-006
8.9183798E+000	2.2801465E+002	2.7956200E+001	2.2972208E+002	-6.9899788E+000	6.951803898194339E+001	3.3150856E+000	1.0632909E-003	6.3834583E+002	9.4538097E+000	1.000000000000000E+000	11	1.3300805E-001	5.7899550E-004	1.685248497431652E-005	-5.5141177E-004	4.3207314E-003	5.2975205E-004	4.3530860E-003	6.9899788E+000	5.634247663776881E-006
7.9395342E+000	2.2974028E+002	2.9342493E+001	2.3160652E+002	-7.2784271E+000	7.045666809320392E+001	3.3150907E+000	1.3811203E-003	6.8316895E+002	1.0965302E+001	1.000000000000000E+000	11	1.3300940E-001	5.7429040E-004	1.147786974090397E-005	-5.5141177E-004	4.2828768E-003	5.4701022E-004	4.3176678E-003	7.2784271E+000	-5.374615233412543E-006
7.0765405E+000	2.3145126E+002	3.0830832E+001	2.3349567E+002	-7.5875077E+000	7.101502318636631E+001	3.3150690E+000	6.9228839E-004	7.2948083E+002	1.2718231E+001	1.000000000000000E+000	11	1.3301015E-001	5.6964718E-004	1.191467939900596E-005	-2.3088411E-004	4.2452365E-003	5.6549348E-004	4.2827348E-003	7.5875077E+000	4.368096581019928E-007
6.3105822E+000	2.3333044E+002	3.2355263E+001	2.3556306E+002	-7.8946972E+000	7.163521084244712E+001	3.3150756E+000	1.0449444E-004	7.7948145E+002	1.4705548E+001	1.000000000000000E+000	11	1.3301687E-001	5.6467624E-004	1.403756080501545E-005	-1.5075220E-004	4.2049130E-003	5.8308319E-004	4.2451476E-003	7.8946972E+000	2.122881406009483E-006
5.6205034E+000	2.3537932E+002	3.4058563E+001	2.3783063E+002	-8.2333555E+000	7.232164743512112E+001	3.3150895E+000	7.9844863E-004	8.3141644E+002	1.7050444E+001	1.000000000000000E+000	11	1.3301159E-001	5.5927027E-004	1.826564626342022E-005	-7.9180748E-004	4.1613355E-003	6.0213066E-004	4.2046728E-003	8.2333555E+000	4.228085458404771E-006
5.0144415E+000	2.3751361E+002	3.5727192E+001	2.4018565E+002	-8.5543919E+000	7.307919115104596E+001	3.3151047E+000	1.5616865E-003	8.8837982E+002	1.9656324E+001	1.000000000000000E+000	11	1.3299960E-001	5.5373664E-004	2.121385422042254E-005	-1.5075220E-004	4.1171280E-003	6.1930524E-004	4.1634459E-003	8.5543919E+000	2.948207957002323E-006
4.4693937E+000	2.3959612E+002	3.7604195E+001	2.4252911E+002	-8.9197092E+000	7.392050631102757E+001	3.3150864E+000	1.9465646E-003	9.4696783E+002	2.2765650E+001	1.000000000000000E+000	11	1.3300845E-001	5.4842263E-004	1.588890577256744E-005	-3.1101602E-004	4.0733526E-003	6.3930562E-004	4.1232165E-003	8.9197092E+000	-5.324948447855100E-006
3.9778514E+000	2.4208698E+002	3.9666409E+001	2.4531516E+002	-9.3053350E+000	7.485717150216806E+001	3.3150969E+000	1.2218796E-003	1.0086691E+003	2.6372160E+001	1.000000000000000E+000	11	1.3300604E-001	5.4218434E-004	1.036829793982825E-005	8.9643538E-005	4.0227463E-003	6.5913465E-004	4.0763891E-003	9.3053350E+000	-5.520607832739187E-006
3.5511365E+000	2.4440730E+002	4.1651222E+001	2.4793094E+002	-9.6712799E+000	7.589839709826629E+001	3.3150818E+000	4.9402833E-004	1.0760315E+003	3.0368202E+001	1.000000000000000E+000	11	1.3300814E-001	5.3647254E-004	2.016171153219572E-005	-7.9180748E-004	3.9760577E-003	6.7758892E-004	4.0333811E-003	9.6712799E+000	9.793413592367466E-006
3.1603966E+000	2.4716426E+002	4.3840836E+001	2.5102229E+002	-1.0058243E+001	7.706026118012960E+001	3.3151023E+000	1.4367142E-003	1.1486818E+003	3.5037476E+001	1.000000000000000E+000	11	1.3300590E-001	5.2985694E-004	2.181228504467354E-005	-4.7127984E-004	3.9224834E-003	6.9575163E-004	3.9837100E-003	1.0058243E+001	1.650573512477824E-006
2.8183618E+000	2.4986932E+002	4.6240837E+001	2.5411197E+002	-1.0484547E+001	7.835566753504827E+001	3.3151002E+000	1.4459798E-003	1.2212306E+003	4.0438850E+001	1.000000000000000E+000	11	1.3300645E-001	5.2341673E-004	9.215116153558686E-006	-7.0620285E-005	3.8695701E-003	7.1610295E-004	3.9352733E-003	1.0484547E+001	-1.259716889111486E-005
2.5136740E+000	2.5268390E+002	4.8560650E+001	2.5730777E+002	-1.0878441E+001	7.979967096363544E+001	3.3151023E+000	7.7443657E-004	1.3038472E+003	4.6439751E+001	1.000000000000000E+000	11	1.3300735E-001	5.1691930E-004	2.414397792479010E-005	-3.9114794E-004	3.8165571E-003	7.3346385E-004	3.8863965E-003	1.0878441E+001	1.492886177123142E-005
2.2398219E+000	2.5585078E+002	5.1089046E+001	2.6090173E+002	-1.1292466E+001	8.141439114694367E+001	3.3151002E+000	1.5838952E-003	1.3908453E+003	5.3331097E+001	1.000000000000000E+000	11	1.3300787E-001	5.0980062E-004	1.954060702845648E-005	9.5116266E-006	3.7586580E-003	7.5054006E-004	3.8328606E-003	1.1292466E+001	-4.603370896333621E-006
1.9970604E+000	2.5911423E+002	5.3843483E+001	2.6464938E+002	-1.1738904E+001	8.321770805931737E+001	3.3151050E+000	1.1388123E-003	1.4801160E+003	6.1266106E+001	1.000000000000000E+000	11	1.3300918E-001	5.0258642E-004	1.159307164759634E-005	-7.0620285E-005	3.6995548E-003	7.6876109E-004	3.7785843E-003	1.1738904E+001	-7.947535380860142E-006
1.7796129E+000	2.6250851E+002	5.6676365E+001	2.6855713E+002	-1.2183321E+001	8.584593871748075E+001	3.3151069E+000	-4.5345463E-005	1.5779476E+003	7.0278618E+001	1.000000000000000E+000	12	1.3300990E-001	4.9527601E-004	3.011359810972742E-005	-7.0620285E-005	3.6397371E-003	7.8583002E-004	3.7236025E-003	1.2183321E+001	1.852052646213108E-005
1.5846854E+000	2.6605331E+002	5.9629402E+001	2.7265369E+002	-1.2632698E+001	8.810500095810858E+001	3.3151076E+000	6.7925389E-004	1.6842891E+003	8.0559135E+001	1.000000000000000E+000	12	1.3300879E-001	4.8783052E-004	8.861399490247196E-006	-2.3088411E-004	3.5788701E-003	8.0211699E-004	3.6676563E-003	1.2632698E+001	-2.125219861948022E-005
1.4122382E+000	2.6990347E+002	6.2763100E+001	2.7710483E+002	-1.3090857E+001	9.063408339821035E+001	3.3151090E+000	-1.3959160E-004	1.7955924E+003	9.2114571E+001	1.000000000000000E+000	12	1.3301060E-001	4.8000101E-004	2.235792823295924E-005	-7.0620285E-005	3.5149590E-003	8.1736530E-004	3.6087425E-003	1.3090857E+001	1.349652874271204E-005
1.2596743E+000	2.7389993E+002	6.6076370E+001	2.8175745E+002	-1.3563040E+001	9.346305529258098E+001	3.3151097E+000	4.0400127E-004	1.9121224E+003	1.0516161E+002	1.000000000000000E+000	12	1.3300943E-001	4.7207068E-004	2.120823283047260E-005	-1.5075220E-004	3.4501750E-003	8.3232968E-004	3.5491521E-003	1.3563040E+001	-1.149695402486638E-006
1.1224856E+000	2.7809058E+002	6.9627991E+001	2.8667477E+002	-1.4056670E+001	9.663102133639040E+001	3.3151045E+000	1.9701794E-004	2.0363644E+003	1.2012800E+002	1.000000000000000E+000	12	1.3300981E-001	4.6397457E-004	9.180644041609615E-006	2.4990735E-004	3.3838204E-003	8.4723701E-004	3.4882734E-003	1.4056670E+001	-1.202758878886299E-005
1.0000638E+000	2.8250626E+002	7.3329475E+001	2.9186810E+002	-1.4551009E+001	1.001803054783086E+002	3.3151095E+000	8.2350489E-005	2.1702705E+003	1.3699280E+002	1.000000000000000E+000	12	1.3300878E-001	4.5571534E-004	3.453354103095706E-005	-7.0620285E-005	3.3163074E-003	8.6080603E-004	3.4262051E-003	1.4551009E+001	2.535289698934745E-005