EC-Lab ASCII FILE
Nb header lines : 60                          

Potentio Electrochemical Impedance Spectroscopy

Run on channel : 4 (SN 4192)
User : 
CE vs. WE compliance from -10 V to 10 V
Electrode connection : standard
Ewe ctrl range : min = -10.00 V, max = 10.00 V
Acquisition started on : 12/03/2020 16:53:59
Technique started on : 12/03/2020 16:54:00
Saved on :
	File : DE_206_4_30.mpr
	Directory : P:\Chemistry\Data\VMP3\Kyler\DOE\DE_206\
	Host : 10.0.4.64
Device : VMP3 (SN 1432)
Address : USB
EC-Lab for windows v11.33 (software)
Internet server v11.32 (firmware)
Command interpretor v11.33 (firmware)
Electrode material : 
Initial state : 
Electrolyte : 
Comments : 
Electrode surface area : 0.001 cm²
Characteristic mass : 0.001 g
Equivalent Weight : 0.000 g/eq.
Density : 0.000 g/cm3
Record Analogic IN 1
Cycle Definition : Charge/Discharge alternance
Mode                Single sine         
E (V)               0.0000              
vs.                 Eoc                 
tE (h:m:s)          0:00:0.0000         
record              0                   
dI                  1.000               
unit dI             mA                  
dt (s)              0.000               
fi                  1.000               
unit fi             MHz                 
ff                  1.000               
unit ff             Hz                  
Nd                  20                  
Points              per decade          
spacing             Logarithmic         
Va (mV)             128.0               
pw                  0.50                
Na                  3                   
corr                0                   
E range min (V)     -10.000             
E range max (V)     10.000              
I Range             Auto                
Bandwidth           5                   
nc cycles           0                   
goto Ns'            0                   
nr cycles           0                   
inc. cycle          1                   

freq/Hz	Re(Z)/Ohm	-Im(Z)/Ohm	|Z|/Ohm	Phase(Z)/deg	time/s	<Ewe>/V	<I>/mA	Cs/µF	Cp/µF	cycle number	I Range	|Ewe|/V	|I|/A	(Q-Qo)/mA.h	Analog IN 1/V	Re(Y)/Ohm-1	Im(Y)/Ohm-1	|Y|/Ohm-1	Phase(Y)/deg	dq/mA.h	
1.0000186E+006	8.5833473E+001	3.6394283E+001	9.3230515E+001	-2.2977448E+001	1.949490625906037E+000	3.3255928E+000	-3.6915471E-003	4.3729944E-003	6.6639093E-004	1.000000000000000E+000	11	3.1175634E-003	3.3439304E-005	-1.630439747974227E-006	-1.3667010E-003	9.8750778E-003	4.1871350E-003	1.0726102E-002	2.2977448E+001	-1.630439747974227E-006
8.9124669E+005	9.0090042E+001	3.4534069E+001	9.6482216E+001	-2.0973246E+001	2.545473027537810E+000	3.3258543E+000	-2.0341831E-003	5.1709991E-003	6.6248403E-004	1.000000000000000E+000	11	4.4431342E-003	4.6051329E-005	-1.980683966510292E-006	-3.2418242E-004	9.6779251E-003	3.7098231E-003	1.0364604E-002	2.0973246E+001	-3.502442185360653E-007
7.9433269E+005	9.2102806E+001	3.2400730E+001	9.7635719E+001	-1.9381298E+001	3.140478655783227E+000	3.3260834E+000	-9.8560459E-004	6.1839065E-003	6.8101240E-004	1.000000000000000E+000	11	6.1395797E-003	6.2882515E-005	-2.226129898781841E-006	-5.6476361E-004	9.6617406E-003	3.3988915E-003	1.0242153E-002	1.9381298E+001	-2.454459322715494E-007
7.0794981E+005	9.4990646E+001	3.1193213E+001	9.9981194E+001	-1.8179247E+001	3.736480097431922E+000	3.3262599E+000	-2.7277868E-004	7.2070505E-003	7.0152170E-004	1.000000000000000E+000	11	8.4575908E-003	8.4591818E-005	-2.216727365030642E-006	-1.0459260E-003	9.5026381E-003	3.1204950E-003	1.0001881E-002	1.8179247E+001	9.402533751199688E-009
6.3095681E+005	9.8070885E+001	3.0302769E+001	1.0264578E+002	-1.7170544E+001	4.332493912399514E+000	3.3264029E+000	3.6001645E-004	8.3241174E-003	7.2547188E-004	1.000000000000000E+000	11	1.1353287E-002	1.1060646E-004	-1.930201384729318E-006	-2.4398866E-004	9.3080318E-003	2.8760743E-003	9.7422414E-003	1.7170544E+001	2.865259803013234E-007
5.6234225E+005	1.0076313E+002	2.9517704E+001	1.0499763E+002	-1.6327499E+001	4.928486900724238E+000	3.3264611E+000	6.7157490E-004	9.5881941E-003	7.5777969E-004	1.000000000000000E+000	11	1.4867209E-002	1.4159565E-004	-1.873551420468276E-006	-1.6379493E-004	9.1399243E-003	2.6774635E-003	9.5240241E-003	1.6327499E+001	5.664996426104242E-008
5.0120619E+005	1.0366637E+002	2.8826338E+001	1.0759960E+002	-1.5539567E+001	5.525472395733232E+000	3.3265901E+000	1.1889791E-003	1.1015754E-002	7.9062738E-004	1.000000000000000E+000	11	1.8893940E-002	1.7559489E-004	-1.488298778583865E-006	-5.6476361E-004	8.9539895E-003	2.4898211E-003	9.2937145E-003	1.5539567E+001	3.852526418844112E-007
4.4668572E+005	1.0632592E+002	2.8102901E+001	1.0997716E+002	-1.4805229E+001	6.121477997367037E+000	3.3266582E+000	1.4936525E-003	1.2678471E-002	8.2787394E-004	1.000000000000000E+000	11	2.3736345E-002	2.1582977E-004	-9.798364575221462E-007	-4.8456987E-004	8.7909177E-003	2.3235190E-003	9.0927975E-003	1.4805229E+001	5.084623210617185E-007
3.9810347E+005	1.0858468E+002	2.7279749E+001	1.1195900E+002	-1.4102562E+001	6.717475705692777E+000	3.3266864E+000	1.6440349E-003	1.4654933E-002	8.7005465E-004	1.000000000000000E+000	11	2.9198660E-002	2.6079779E-004	-7.158798923321430E-007	-3.2418242E-004	8.6626448E-003	2.1763179E-003	8.9318408E-003	1.4102562E+001	2.639565651900032E-007
3.5480997E+005	1.1086088E+002	2.6465342E+001	1.1397609E+002	-1.3426679E+001	7.313488533982309E+000	3.3267133E+000	1.5738700E-003	1.6949106E-002	9.1384875E-004	1.000000000000000E+000	11	3.5531905E-002	3.1174876E-004	-2.013002731495766E-007	-5.6476361E-004	8.5339639E-003	2.0372767E-003	8.7737702E-003	1.3426679E+001	5.145796191825664E-007
3.1622997E+005	1.1310954E+002	2.5632704E+001	1.1597760E+002	-1.2768613E+001	7.908475442294730E+000	3.3267555E+000	1.6529723E-003	1.9634629E-002	9.5909869E-004	1.000000000000000E+000	11	4.2780995E-002	3.6887292E-004	5.317524144079976E-007	-7.2515110E-004	8.4091285E-003	1.9056634E-003	8.6223548E-003	1.2768613E+001	7.330526875575742E-007
2.8183453E+005	1.1492314E+002	2.4743492E+001	1.1755666E+002	-1.2150566E+001	8.504485043900786E+000	3.3267498E+000	1.6356651E-003	2.2822589E-002	1.0110961E-003	1.000000000000000E+000	11	5.0973926E-002	4.3361154E-004	6.611441093575397E-007	-2.0082509E-003	8.3159721E-003	1.7904679E-003	8.5065365E-003	1.2150566E+001	1.293916949495422E-007
2.5118764E+005	1.1678020E+002	2.3849535E+001	1.1919067E+002	-1.1542552E+001	9.099471312161768E+000	3.3267646E+000	1.6226361E-003	2.6566966E-002	1.0636953E-003	1.000000000000000E+000	11	6.0176596E-002	5.0487672E-004	1.437866936424851E-006	-7.2515110E-004	8.2202433E-003	1.6787860E-003	8.3899181E-003	1.1542552E+001	7.767228270673108E-007
2.2387173E+005	1.1849338E+002	2.2973225E+001	1.2069983E+002	-1.0972249E+001	9.694482913793763E+000	3.3267553E+000	1.7799075E-003	3.0945599E-002	1.1210616E-003	1.000000000000000E+000	11	7.0425428E-002	5.8347580E-004	2.315497840764389E-006	-3.2418242E-004	8.1335614E-003	1.5769163E-003	8.2850158E-003	1.0972249E+001	8.776309043395386E-007
1.9954350E+005	1.2028688E+002	2.2131216E+001	1.2230586E+002	-1.0425085E+001	1.029147542212741E+001	3.3267024E+000	1.7845653E-003	3.6039378E-002	1.1800306E-003	1.000000000000000E+000	11	8.1787840E-002	6.6871563E-004	3.070011520237636E-006	-2.4398866E-004	8.0412533E-003	1.4794855E-003	8.1762234E-003	1.0425085E+001	7.545136794732469E-007
1.7783180E+005	1.2184646E+002	2.1296576E+001	1.2369359E+002	-9.9141293E+000	1.088649163706577E+001	3.3267055E+000	1.5126526E-003	4.2024344E-002	1.2457363E-003	1.000000000000000E+000	11	9.4090961E-002	7.6067774E-004	3.146795854852017E-006	-3.2418242E-004	7.9637673E-003	1.3919236E-003	8.0844937E-003	9.9141293E+000	7.678433461438135E-008
1.5848613E+005	1.2317410E+002	2.0449745E+001	1.2486013E+002	-9.4264402E+000	1.148347267872305E+001	3.3267260E+000	1.5204714E-003	4.9106725E-002	1.3172531E-003	1.000000000000000E+000	11	1.0723695E-001	8.5885666E-004	4.597801604867628E-006	-1.5270885E-003	7.9008136E-003	1.3117174E-003	8.0089616E-003	9.4264402E+000	1.451005750015611E-006
1.4125594E+005	1.2450706E+002	1.9639650E+001	1.2604652E+002	-8.9639339E+000	1.194349379392224E+001	3.3267214E+000	1.7080797E-003	5.7369314E-002	1.3927894E-003	1.000000000000000E+000	11	1.2139231E-001	9.6307549E-004	4.924684613121725E-006	-4.8456987E-004	7.8366837E-003	1.2361525E-003	7.9335794E-003	8.9639339E+000	3.268830082540967E-007
1.2590930E+005	1.2575375E+002	1.8900499E+001	1.2716618E+002	-8.5474463E+000	1.240349013576633E+001	3.3267252E+000	1.6917011E-003	6.6878892E-002	1.4773806E-003	1.000000000000000E+000	11	1.3652466E-001	1.0735926E-003	4.992419510258413E-006	1.5698001E-004	7.7763852E-003	1.1687727E-003	7.8637265E-003	8.5474463E+000	6.773489713668831E-008
1.1220494E+005	1.2696982E+002	1.8160601E+001	1.2826201E+002	-8.1398554E+000	1.299848360402393E+001	3.3267341E+000	1.7979713E-003	7.8104839E-002	1.5658216E-003	1.000000000000000E+000	11	1.3020253E-001	1.0151294E-003	5.517017990648229E-006	-5.6476361E-004	7.7179940E-003	1.1039112E-003	7.7965409E-003	8.1398554E+000	5.245984803898160E-007
1.0000371E+005	1.2812793E+002	1.7488598E+001	1.2931596E+002	-7.7724566E+000	1.359347179232282E+001	3.3267410E+000	1.8586454E-003	9.1001600E-002	1.6643885E-003	1.000000000000000E+000	11	1.2987095E-001	1.0042917E-003	5.525697140527578E-006	-4.8456987E-004	7.6619540E-003	1.0458049E-003	7.7329972E-003	7.7724566E+000	8.679149879349033E-009
8.9129305E+004	1.2922133E+002	1.6845423E+001	1.3031470E+002	-7.4272518E+000	1.418848539391183E+001	3.3267612E+000	1.8744640E-003	1.0600289E-001	1.7713106E-003	1.000000000000000E+000	11	1.2971005E-001	9.9536008E-004	8.054545227596666E-006	-2.0082509E-003	7.6093473E-003	9.9196215E-004	7.6737315E-003	7.4272518E+000	2.528848087069087E-006
7.9433273E+004	1.3025713E+002	1.6244522E+001	1.3126616E+002	-7.1087227E+000	1.478447467551450E+001	3.3267782E+000	2.0038148E-003	1.2334193E-001	1.8889440E-003	1.000000000000000E+000	11	1.2960446E-001	9.8734093E-004	7.155380373794792E-006	-1.3667010E-003	7.5595500E-003	9.4276050E-004	7.6181097E-003	7.1087227E+000	-8.991648538018735E-007
7.0794977E+004	1.3123987E+002	1.5673176E+001	1.3217242E+002	-6.8102312E+000	1.537947641048231E+001	3.3267825E+000	2.0041880E-003	1.4343683E-001	2.0169399E-003	1.000000000000000E+000	11	1.2959462E-001	9.8049664E-004	6.345322953731132E-006	-1.1261198E-003	7.5124926E-003	8.9717109E-004	7.5658746E-003	6.8102312E+000	-8.100574200636598E-007
6.3093828E+004	1.3215926E+002	1.5150207E+001	1.3302480E+002	-6.5396118E+000	1.597448491872638E+001	3.3267825E+000	1.8858198E-003	1.6650018E-001	2.1596660E-003	1.000000000000000E+000	11	1.2939085E-001	9.7268214E-004	8.427208246229889E-006	-7.2515110E-004	7.4684825E-003	8.5615693E-004	7.5173955E-003	6.5396118E+000	2.081885292498757E-006
5.6237012E+004	1.3304575E+002	1.4680108E+001	1.3385320E+002	-6.2964773E+000	1.657149654705427E+001	3.3267884E+000	1.9490987E-003	1.9278295E-001	2.3188340E-003	1.000000000000000E+000	11	1.2941122E-001	9.6681458E-004	7.095717368366119E-006	-8.0534484E-004	7.4258046E-003	8.1935438E-004	7.4708713E-003	6.2964773E+000	-1.331490877863770E-006
5.0122477E+004	1.3387883E+002	1.4253922E+001	1.3463550E+002	-6.0773196E+000	1.703149592890986E+001	3.3267941E+000	1.9883695E-003	2.2276822E-001	2.4969096E-003	1.000000000000000E+000	11	1.4023243E-001	1.0415710E-003	6.926860586610727E-006	-5.6476361E-004	7.3857186E-003	7.8634871E-004	7.4274614E-003	6.0773196E+000	-1.688567817553925E-007
4.4666715E+004	1.3469630E+002	1.3885448E+001	1.3541011E+002	-5.8856645E+000	1.762648350387462E+001	3.3268063E+000	2.0570469E-003	2.5661156E-001	2.6983223E-003	1.000000000000000E+000	11	1.3030912E-001	9.6232933E-004	5.705835461836411E-006	-5.6476361E-004	7.3460434E-003	7.5728213E-004	7.3849731E-003	5.8856645E+000	-1.221025124774315E-006
3.9814063E+004	1.3539548E+002	1.3569725E+001	1.3607378E+002	-5.7232366E+000	1.808549693899113E+001	3.3268173E+000	2.0241032E-003	2.9458633E-001	2.9295832E-003	1.000000000000000E+000	11	1.3934809E-001	1.0240627E-003	6.026355555268108E-006	-7.2515110E-004	7.3123216E-003	7.3286192E-004	7.3489547E-003	5.7232366E+000	3.205200934316968E-007
3.5480996E+004	1.3620288E+002	1.3314756E+001	1.3685214E+002	-5.5833106E+000	1.868149062062730E+001	3.3268039E+000	1.9567292E-003	3.3689231E-001	3.1889989E-003	1.000000000000000E+000	11	1.3010225E-001	9.5067749E-004	8.117213530252532E-006	1.5698001E-004	7.2724898E-003	7.1093516E-004	7.3071565E-003	5.5833106E+000	2.090857974984423E-006
3.1621143E+004	1.3685715E+002	1.3097469E+001	1.3748244E+002	-5.4666581E+000	1.914047538911109E+001	3.3268092E+000	2.0071643E-003	3.8428655E-001	3.4876710E-003	1.000000000000000E+000	11	1.3721277E-001	9.9803857E-004	8.097045063552084E-006	-8.0534484E-004	7.2405743E-003	6.9293572E-004	7.2736563E-003	5.4666581E+000	-2.016846670044711E-008
2.8188096E+004	1.3759900E+002	1.2952115E+001	1.3820724E+002	-5.3773742E+000	1.973648299076012E+001	3.3268137E+000	2.0881272E-003	4.3592691E-001	3.8285423E-003	1.000000000000000E+000	11	1.2966976E-001	9.3822688E-004	7.933034755891033E-006	-5.6476361E-004	7.2036674E-003	6.7807705E-004	7.2355107E-003	5.3773742E+000	-1.640103076610515E-007
2.5116910E+004	1.3825029E+002	1.2867493E+001	1.3884781E+002	-5.3174224E+000	2.019548245254555E+001	3.3268223E+000	2.0214983E-003	4.9244758E-001	4.2293128E-003	1.000000000000000E+000	11	1.3495889E-001	9.7199157E-004	8.330920914045742E-006	-4.0437613E-004	7.1711363E-003	6.6744559E-004	7.2021303E-003	5.3174224E+000	3.978861581547089E-007
2.2389027E+004	1.3891916E+002	1.2836576E+001	1.3951097E+002	-5.2793221E+000	2.065549012771226E+001	3.3268304E+000	2.0456905E-003	5.5377805E-001	4.6883211E-003	1.000000000000000E+000	11	1.3963908E-001	1.0009182E-003	9.466555094388089E-006	-5.6476361E-004	7.1374886E-003	6.5952679E-004	7.1678949E-003	5.2793221E+000	1.135634180342347E-006
1.9948783E+004	1.3960193E+002	1.2877937E+001	1.4019466E+002	-5.2704797E+000	2.125148402267951E+001	3.3268147E+000	2.0214960E-003	6.1952299E-001	5.2274168E-003	1.000000000000000E+000	11	1.2960672E-001	9.2447695E-004	7.813524639984179E-006	-6.4495736E-004	7.1027824E-003	6.5521436E-004	7.1329395E-003	5.2704797E+000	-1.653030454403909E-006
1.7786895E+004	1.4032632E+002	1.2978997E+001	1.4092526E+002	-5.2843409E+000	2.171049561785185E+001	3.3268006E+000	2.0395510E-003	6.8941206E-001	5.8476781E-003	1.000000000000000E+000	11	1.3270697E-001	9.4168336E-004	7.215300175206115E-006	-8.8553858E-004	7.0658014E-003	6.5352692E-004	7.0959600E-003	5.2843409E+000	-5.982244647780644E-007
1.5847686E+004	1.4098814E+002	1.3145239E+001	1.4159962E+002	-5.3266578E+000	2.216949217297952E+001	3.3268142E+000	2.0099590E-003	7.6398677E-001	6.5841326E-003	1.000000000000000E+000	11	1.3529295E-001	9.5546123E-004	6.575397204543050E-006	-5.6476361E-004	7.0316684E-003	6.5560802E-004	7.0621655E-003	5.3266578E+000	-6.399029706630650E-007
1.4121879E+004	1.4169101E+002	1.3375308E+001	1.4232091E+002	-5.3926110E+000	2.262847310144571E+001	3.3268232E+000	2.0656080E-003	8.4260464E-001	7.4420748E-003	1.000000000000000E+000	11	1.3745756E-001	9.6582837E-004	7.157285106148467E-006	-8.8553858E-004	6.9952761E-003	6.6033815E-004	7.0263743E-003	5.3926110E+000	5.818879016054172E-007
1.2590932E+004	1.4242155E+002	1.3649699E+001	1.4307416E+002	-5.4745135E+000	2.308748096323689E+001	3.3268216E+000	2.0108891E-003	9.2606008E-001	8.4287459E-003	1.000000000000000E+000	11	1.3923436E-001	9.7316218E-004	6.547578997961763E-006	-4.0437613E-004	6.9575016E-003	6.6680781E-004	6.9893822E-003	5.4745135E+000	-6.097061081867038E-007
1.1217711E+004	1.4319112E+002	1.4011469E+001	1.4387500E+002	-5.5886879E+000	2.354648527837708E+001	3.3268273E+000	2.0255931E-003	1.0125867E+000	9.6034855E-003	1.000000000000000E+000	11	1.4068010E-001	9.7779394E-004	6.522876675809837E-006	-1.4468947E-003	6.9174399E-003	6.7688210E-004	6.9504781E-003	5.5886879E+000	-2.470232215192606E-008
1.0002229E+004	1.4400580E+002	1.4415727E+001	1.4472554E+002	-5.7165599E+000	2.414147837329074E+001	3.3268180E+000	1.9373731E-003	1.1037908E+000	1.0951396E-002	1.000000000000000E+000	11	1.2937865E-001	8.9395861E-004	8.299770749746434E-006	-1.2063135E-003	6.8752673E-003	6.8824989E-004	6.9096303E-003	5.7165599E+000	1.776894073936596E-006
8.9149297E+003	1.4485213E+002	1.4889140E+001	1.4561533E+002	-5.8687396E+000	2.462392111623194E+001	3.3268774E+000	2.3241218E-003	1.1990370E+000	1.2535961E-002	1.000000000000000E+000	11	1.3022071E-001	8.9427893E-004	8.156381293503930E-006	-1.0459260E-003	6.8314155E-003	7.0219132E-004	6.8674092E-003	5.8687396E+000	-1.433894562425039E-007
7.9439976E+003	1.4574301E+002	1.5431957E+001	1.4655774E+002	-6.0442262E+000	2.514998274121899E+001	3.3268886E+000	2.4892068E-003	1.2982551E+000	1.4394100E-002	1.000000000000000E+000	11	1.3088453E-001	8.9305779E-004	8.946437387449098E-006	-3.2418242E-004	6.7853183E-003	7.1846152E-004	6.8232492E-003	6.0442262E+000	7.900560939451686E-007
7.0822334E+003	1.4668289E+002	1.6009178E+001	1.4755394E+002	-6.2286892E+000	2.572685727529461E+001	3.3269143E+000	2.5796590E-003	1.4037212E+000	1.6524082E-002	1.000000000000000E+000	11	1.3138895E-001	8.9044689E-004	9.807764106624139E-006	-9.6573232E-004	6.7371754E-003	7.3530490E-004	6.7771827E-003	6.2286892E+000	8.613267191750408E-007
6.3077344E+003	1.4771848E+002	1.6658085E+001	1.4865477E+002	-6.4340134E+000	2.636152749208850E+001	3.3269157E+000	2.4668719E-003	1.5146827E+000	1.9020157E-002	1.000000000000000E+000	11	1.3180128E-001	8.8662660E-004	9.702882151106475E-006	-8.3601190E-005	6.6846260E-003	7.5381942E-004	6.7269956E-003	6.4340134E+000	-1.048819555176637E-007
5.6210552E+003	1.4881577E+002	1.7351271E+001	1.4982390E+002	-6.6504102E+000	2.706227480535745E+001	3.3269172E+000	2.4746892E-003	1.6318152E+000	2.1886250E-002	1.000000000000000E+000	11	1.3210732E-001	8.8175066E-004	1.091724190085208E-005	-6.4495736E-004	6.6295913E-003	7.7298150E-004	6.6745025E-003	6.6504102E+000	1.214359749745603E-006
5.0116035E+003	1.4998457E+002	1.8071287E+001	1.5106934E+002	-6.8703146E+000	2.782268382819893E+001	3.3269167E+000	2.4478887E-003	1.7573341E+000	2.5146635E-002	1.000000000000000E+000	11	1.3233627E-001	8.7599695E-004	1.161721077070494E-005	-7.2515110E-004	6.5719457E-003	7.9183822E-004	6.6194772E-003	6.8703146E+000	6.999688698528594E-007
4.4664292E+003	1.5127165E+002	1.8845320E+001	1.5244099E+002	-7.1012831E+000	2.858270871762943E+001	3.3269317E+000	2.5668163E-003	1.8908460E+000	2.8897459E-002	1.000000000000000E+000	11	1.3251171E-001	8.6926558E-004	1.280213009970935E-005	-1.0459260E-003	6.5095956E-003	8.1096101E-004	6.5599154E-003	7.1012831E+000	1.184919329004415E-006
3.9812742E+003	1.5265059E+002	1.9635426E+001	1.5390826E+002	-7.3297005E+000	2.934266339372698E+001	3.3269339E+000	2.5822644E-003	2.0359061E+000	3.3137098E-002	1.000000000000000E+000	11	1.3264300E-001	8.6183153E-004	1.282065965722884E-005	-7.2515110E-004	6.4442833E-003	8.2892732E-004	6.4973771E-003	7.3297005E+000	1.852955751948729E-008
3.5465955E+003	1.5414880E+002	2.0443151E+001	1.5549847E+002	-7.5544600E+000	3.010293870980968E+001	3.3269098E+000	2.4013591E-003	2.1951320E+000	3.7940588E-002	1.000000000000000E+000	11	1.3272850E-001	8.5356785E-004	1.312274774680716E-005	-8.8553858E-004	6.3751130E-003	8.4546494E-004	6.4309314E-003	7.5544600E+000	3.020880895783206E-007
3.1610112E+003	1.5575172E+002	2.1266356E+001	1.5719687E+002	-7.7750921E+000	3.086270549258916E+001	3.3269217E+000	2.5109812E-003	2.3675601E+000	4.3331068E-002	1.000000000000000E+000	11	1.3279042E-001	8.4473961E-004	1.335466031431942E-005	-8.0534484E-004	6.3029677E-003	8.6060789E-004	6.3614501E-003	7.7750921E+000	2.319125675122540E-007
2.8172952E+003	1.5746321E+002	2.2054918E+001	1.5900026E+002	-7.9732032E+000	3.162294856869266E+001	3.3269217E+000	2.3088586E-003	2.5614290E+000	4.9283050E-002	1.000000000000000E+000	11	1.3282816E-001	8.3539588E-004	1.313870517863931E-005	-8.8553858E-004	6.2284996E-003	8.7238813E-004	6.2892977E-003	7.9732032E+000	-2.159551356801070E-007
2.5108032E+003	1.5926831E+002	2.2826651E+001	1.6089578E+002	-8.1562014E+000	3.238271100478596E+001	3.3269322E+000	2.4709660E-003	2.7769322E+000	5.5893373E-002	1.000000000000000E+000	11	1.3284861E-001	8.2568108E-004	1.340613331590430E-005	-8.3601190E-005	6.1523360E-003	8.8176504E-004	6.2152031E-003	8.1562014E+000	2.674281372649909E-007
2.2378516E+003	1.6119687E+002	2.3535547E+001	1.6290596E+002	-8.3067751E+000	3.314294778753538E+001	3.3269291E+000	2.2690301E-003	3.0217919E+000	6.3072376E-002	1.000000000000000E+000	11	1.3285942E-001	8.1555900E-004	1.444931247820447E-005	-7.2515110E-004	6.0741100E-003	8.8685041E-004	6.1385110E-003	8.3067751E+000	1.043179162300172E-006
1.9956389E+003	1.6328317E+002	2.4200342E+001	1.6506680E+002	-8.4304867E+000	3.390266713031451E+001	3.3269231E+000	2.4080586E-003	3.2954648E+000	7.0833743E-002	1.000000000000000E+000	11	1.3285840E-001	8.0487650E-004	1.442121025629361E-005	-6.4495736E-004	5.9926915E-003	8.8818214E-004	6.0581532E-003	8.4304867E+000	-2.810222191086122E-008
1.7782927E+003	1.6546898E+002	2.4756203E+001	1.6731065E+002	-8.5090418E+000	3.466296567308018E+001	3.3269081E+000	2.3192817E-003	3.6152043E+000	7.9150513E-002	1.000000000000000E+000	11	1.3284931E-001	7.9402776E-004	1.546618556636127E-005	-1.0459260E-003	5.9111151E-003	8.8437571E-004	5.9769056E-003	8.5090418E+000	1.044975310067658E-006
1.5855076E+003	1.6771609E+002	2.5228546E+001	1.6960297E+002	-8.5545301E+000	3.542266922917770E+001	3.3269300E+000	2.5163770E-003	3.9788687E+000	8.8039413E-002	1.000000000000000E+000	11	1.3283429E-001	7.8320730E-004	1.623574504763302E-005	-1.1261198E-003	5.8305273E-003	8.7705196E-004	5.8961231E-003	8.5545301E+000	7.695594812717486E-007
1.4118373E+003	1.7007892E+002	2.5557447E+001	1.7198843E+002	-8.5457916E+000	3.618421081194538E+001	3.3269207E+000	2.3790230E-003	4.4108067E+000	9.7398996E-002	1.000000000000000E+000	11	1.3282052E-001	7.7226426E-004	1.725753918315361E-005	-5.6476361E-004	5.7497905E-003	8.6401042E-004	5.8143446E-003	8.5457916E+000	1.021794135520597E-006
1.2587914E+003	1.7247145E+002	2.5750031E+001	1.7438310E+002	-8.4915504E+000	3.694394690141780E+001	3.3269126E+000	2.4342993E-003	4.9100804E+000	1.0706199E-001	1.000000000000000E+000	11	1.3280517E-001	7.6157128E-004	1.834178051231558E-005	-1.2063135E-003	5.6716367E-003	8.4677676E-004	5.7345005E-003	8.4915504E+000	1.084241329161968E-006
1.1217948E+003	1.7489073E+002	2.5808844E+001	1.7678479E+002	-8.3946228E+000	3.770242421739385E+001	3.3269110E+000	2.4359731E-003	5.4971571E+000	1.1716164E-001	1.000000000000000E+000	11	1.3278928E-001	7.5113523E-004	1.853643602545102E-005	-1.1261198E-003	5.5959909E-003	8.2580739E-004	5.6565953E-003	8.3946228E+000	1.946555131354328E-007
1.0003201E+003	1.7727536E+002	2.5702578E+001	1.7912894E+002	-8.2496433E+000	3.846168137351924E+001	3.3269455E+000	2.7508822E-003	6.1901975E+000	1.2744604E-001	1.000000000000000E+000	11	1.3276745E-001	7.4118376E-004	1.961990202345704E-005	-9.6573232E-004	5.5248043E-003	8.0102339E-004	5.5825710E-003	8.2496433E+000	1.083465998006028E-006
8.9142657E+002	1.7965883E+002	2.5430296E+001	1.8144971E+002	-8.0565643E+000	3.922043087615748E+001	3.3269167E+000	2.6647097E-003	7.0207443E+000	1.3790290E-001	1.000000000000000E+000	11	1.3274851E-001	7.3159952E-004	2.068175159736226E-005	-1.1261198E-003	5.4567745E-003	7.7239395E-004	5.5111689E-003	8.0565643E+000	1.061849573905216E-006
7.9423773E+002	1.8197643E+002	2.5046110E+001	1.8369194E+002	-7.8366013E+000	3.997992733895080E+001	3.3269205E+000	2.6848102E-003	8.0007248E+000	1.4874066E-001	1.000000000000000E+000	11	1.3273454E-001	7.2259316E-004	2.075919637287896E-005	-1.0459260E-003	5.3930562E-003	7.4226689E-004	5.4438971E-003	7.8366013E+000	7.744477551669920E-008
7.0750946E+002	1.8426244E+002	2.4519159E+001	1.8588661E+002	-7.5796223E+000	4.074245332178543E+001	3.3269308E+000	2.7075161E-003	9.1744976E+000	1.5962365E-001	1.000000000000000E+000	11	1.3272539E-001	7.1401265E-004	2.200059310435447E-005	-7.2515110E-004	5.3326194E-003	7.0959306E-004	5.3796237E-003	7.5796223E+000	1.241396731475509E-006
6.3100964E+002	1.8639934E+002	2.3878845E+001	1.8792262E+002	-7.3001633E+000	4.150041954449262E+001	3.3269153E+000	2.6812733E-003	1.0562599E+001	1.7054513E-001	1.000000000000000E+000	11	1.3270988E-001	7.0619426E-004	2.309537121666168E-005	-8.8553858E-004	5.2782050E-003	6.7616894E-004	5.3213392E-003	7.3001633E+000	1.094778112307216E-006
5.6233929E+002	1.8842357E+002	2.3154741E+001	1.8984094E+002	-7.0057626E+000	4.225691070043831E+001	3.3269076E+000	2.6665698E-003	1.2223111E+001	1.8183684E-001	1.000000000000000E+000	11	1.3270037E-001	6.9900817E-004	2.397861802248614E-005	-2.4398866E-004	5.2282391E-003	6.4248085E-004	5.2675675E-003	7.0057626E+000	8.832468058244567E-007
5.0144415E+002	1.9029628E+002	2.2350092E+001	1.9160428E+002	-6.6986389E+000	4.301415889637428E+001	3.3269162E+000	2.6248805E-003	1.4200977E+001	1.9322640E-001	1.000000000000000E+000	11	1.3268730E-001	6.9250696E-004	2.472650227883585E-005	-6.4495736E-004	5.1834616E-003	6.0879195E-004	5.2190903E-003	6.6986389E+000	7.478842563497100E-007
4.4685895E+002	1.9202603E+002	2.1531620E+001	1.9322942E+002	-6.3977752E+000	4.377091807901161E+001	3.3269117E+000	2.6254386E-003	1.6541428E+001	2.0539029E-001	1.000000000000000E+000	11	1.3267203E-001	6.8660366E-004	2.526680116662626E-005	-4.0437613E-004	5.1429658E-003	5.7667383E-004	5.1751956E-003	6.3977752E+000	5.402988877904143E-007
3.9808920E+002	1.9364378E+002	2.0661789E+001	1.9474297E+002	-6.0904155E+000	4.453371958192292E+001	3.3269196E+000	2.7138432E-003	1.9349592E+001	2.1781315E-001	1.000000000000000E+000	11	1.3266772E-001	6.8124523E-004	2.544275458699768E-005	-8.8553858E-004	5.1059905E-003	5.4480910E-004	5.1349737E-003	6.0904155E+000	1.759534203714177E-007
3.5465955E+002	1.9512144E+002	1.9799192E+001	1.9612340E+002	-5.7940359E+000	4.529393951134989E+001	3.3269224E+000	2.6295322E-003	2.2665277E+001	2.3099211E-001	1.000000000000000E+000	11	1.3266431E-001	6.7643286E-004	2.631443395763118E-005	-8.8553858E-004	5.0727823E-003	5.1474094E-004	5.0988309E-003	5.7940359E+000	8.716793706334993E-007
3.1631586E+002	1.9645091E+002	1.8985239E+001	1.9736617E+002	-5.5199866E+000	4.605092421398149E+001	3.3269217E+000	2.7004427E-003	2.6502270E+001	2.4522787E-001	1.000000000000000E+000	11	1.3265754E-001	6.7213923E-004	2.637374978276784E-005	-7.2515110E-004	5.0432286E-003	4.8738328E-004	5.0667245E-003	5.5199866E+000	5.931582513666339E-008
2.8189429E+002	1.9768254E+002	1.8207909E+001	1.9851930E+002	-5.2624836E+000	4.680642734313733E+001	3.3269196E+000	2.6546579E-003	3.1008001E+001	2.6084855E-001	1.000000000000000E+000	11	1.3265461E-001	6.6822022E-004	2.752761060455102E-005	-3.2418242E-004	5.0160615E-003	4.6201344E-004	5.0372938E-003	5.2624836E+000	1.153860821783180E-006
2.5104436E+002	1.9880588E+002	1.7463236E+001	1.9957140E+002	-5.0200133E+000	4.756293716578512E+001	3.3269205E+000	2.6859250E-003	3.6303200E+001	2.7796990E-001	1.000000000000000E+000	11	1.3265280E-001	6.6468847E-004	2.830522426257246E-005	-1.2063135E-003	4.9915179E-003	4.3845814E-004	5.0107380E-003	5.0200133E+000	7.776136580214377E-007
2.2392513E+002	1.9981789E+002	1.6801945E+001	2.0052306E+002	-4.8064828E+000	4.832571962870134E+001	3.3269165E+000	2.7049093E-003	4.2301697E+001	2.9699439E-001	1.000000000000000E+000	11	1.3264863E-001	6.6151313E-004	2.897022859521611E-005	-8.8553858E-004	4.9694204E-003	4.1786014E-004	4.9869576E-003	4.8064828E+000	6.650043326436506E-007
1.9955299E+002	2.0075801E+002	1.6218269E+001	2.0141205E+002	-4.6186190E+000	4.908719347816077E+001	3.3269093E+000	2.6842500E-003	4.9176472E+001	3.1885666E-001	1.000000000000000E+000	11	1.3264136E-001	6.5855723E-004	2.870226124268245E-005	-5.6476361E-004	4.9488242E-003	3.9979155E-004	4.9649463E-003	4.6186190E+000	-2.679673525336604E-007
1.7778128E+002	2.0163870E+002	1.5682161E+001	2.0224760E+002	-4.4471450E+000	4.985525799464085E+001	3.3269150E+000	2.7780528E-003	5.7085815E+001	3.4322053E-001	1.000000000000000E+000	11	1.3264056E-001	6.5583253E-004	2.868963313773080E-005	-9.6573232E-004	4.9295481E-003	3.8338854E-004	4.9444344E-003	4.4471450E+000	-1.262810495164827E-008
1.5842838E+002	2.0247394E+002	1.5252859E+001	2.0304764E+002	-4.3080950E+000	5.062176235108927E+001	3.3269076E+000	2.6801548E-003	6.5862152E+001	3.7165719E-001	1.000000000000000E+000	11	1.3264275E-001	6.5325922E-004	2.971805526831789E-005	-8.0534484E-004	4.9110372E-003	3.6996053E-004	4.9249525E-003	4.3080950E+000	1.028422130587085E-006
1.4131134E+002	2.0323082E+002	1.4910905E+001	2.0377708E+002	-4.1962328E+000	5.137489190686028E+001	3.3269215E+000	2.7091887E-003	7.5533417E+001	4.0442356E-001	1.000000000000000E+000	11	1.3263960E-001	6.5090536E-004	2.993335148885187E-005	-2.4398866E-004	4.8941681E-003	3.5908169E-004	4.9073230E-003	4.1962328E+000	2.152962205339761E-007
1.2584569E+002	2.0396832E+002	1.4644599E+001	2.0449338E+002	-4.1066980E+000	5.213042762273108E+001	3.3269176E+000	2.6539117E-003	8.6358345E+001	4.4289500E-001	1.000000000000000E+000	11	1.3263421E-001	6.4859906E-004	3.073824181066367E-005	-4.8456987E-004	4.8775785E-003	3.5020229E-004	4.8901341E-003	4.1066980E+000	8.048903218118002E-007
1.1218996E+002	2.0467982E+002	1.4458603E+001	2.0518987E+002	-4.0406675E+000	5.287583949814143E+001	3.3269088E+000	2.6418136E-003	9.8115997E+001	4.8717016E-001	1.000000000000000E+000	11	1.3263452E-001	6.4639898E-004	3.140359004684110E-005	-7.2515110E-004	4.8614210E-003	3.4341126E-004	4.8735351E-003	4.0406675E+000	6.653482361774308E-007
1.0003201E+002	2.0539122E+002	1.4342036E+001	2.0589134E+002	-3.9943600E+000	5.363568089425098E+001	3.3269157E+000	2.7413855E-003	1.1093544E+002	5.3828937E-001	1.000000000000000E+000	11	1.3263109E-001	6.4418005E-004	3.157339935773861E-005	-8.0534484E-004	4.8451326E-003	3.3832542E-004	4.8569306E-003	3.9943600E+000	1.698093108975116E-007
8.9115974E+001	2.0607228E+002	1.4327027E+001	2.0656972E+002	-3.9770484E+000	5.440272887733590E+001	3.3269157E+000	2.7784228E-003	1.2465465E+002	5.9963548E-001	1.000000000000000E+000	11	1.3263898E-001	6.4210274E-004	3.173561872721863E-005	-4.8456987E-004	4.8293234E-003	3.3575523E-004	4.8409807E-003	3.9770484E+000	1.622193694800222E-007
7.9415527E+001	2.0675830E+002	1.4391761E+001	2.0725858E+002	-3.9817472E+000	5.516720366026857E+001	3.3269119E+000	2.8238352E-003	1.3925179E+002	6.7143446E-001	1.000000000000000E+000	11	1.3263641E-001	6.3995621E-004	3.285024982597841E-005	-6.4495736E-004	4.8132446E-003	3.3503401E-004	4.8248908E-003	3.9817472E+000	1.114631098759775E-006
7.0838745E+001	2.0744412E+002	1.4543141E+001	2.0795328E+002	-4.0102344E+000	5.591836089597200E+001	3.3269083E+000	2.7968476E-003	1.5448668E+002	7.5557220E-001	1.000000000000000E+000	11	1.3263291E-001	6.3780148E-004	3.331170855995313E-005	-4.8456987E-004	4.7969986E-003	3.3629985E-004	4.8087724E-003	4.0102344E+000	4.614587339747239E-007
6.3082302E+001	2.0815660E+002	1.4781810E+001	2.0868079E+002	-4.0619226E+000	5.669882671973028E+001	3.3269088E+000	2.7268671E-003	1.7068092E+002	8.5639727E-001	1.000000000000000E+000	11	1.3263172E-001	6.3557224E-004	3.356145793308679E-005	-1.0459260E-003	4.7799707E-003	3.3943975E-004	4.7920081E-003	4.0619226E+000	2.497493731336590E-007
5.6241817E+001	2.0891727E+002	1.5045391E+001	2.0945833E+002	-4.1191030E+000	5.744334643505863E+001	3.3269141E+000	2.6077528E-003	1.8808636E+002	9.7044075E-001	1.000000000000000E+000	11	1.3263258E-001	6.3321705E-004	3.431895294283782E-005	-9.6573232E-004	4.7618872E-003	3.4293215E-004	4.7742194E-003	4.1191030E+000	7.574950097510302E-007
5.0144413E+001	2.0968701E+002	1.5410203E+001	2.1025250E+002	-4.2031937E+000	5.820015737766516E+001	3.3269186E+000	2.6762434E-003	2.0596300E+002	1.1064291E+000	1.000000000000000E+000	11	1.3263237E-001	6.3082424E-004	3.502307731585299E-005	-6.4495736E-004	4.7433940E-003	3.4859890E-004	4.7561862E-003	4.2031937E+000	7.041243730151746E-007
4.4671219E+001	2.1050375E+002	1.5872593E+001	2.1110132E+002	-4.3121080E+000	5.896424269393901E+001	3.3269145E+000	2.6797794E-003	2.2446283E+002	1.2689903E+000	1.000000000000000E+000	11	1.3263127E-001	6.2828255E-004	3.525337016390242E-005	-3.2418242E-004	4.7236527E-003	3.5617710E-004	4.7370619E-003	4.3121080E+000	2.302928480494291E-007
3.9808922E+001	2.1136678E+002	1.6387436E+001	2.1200108E+002	-4.4333191E+000	5.972670070355525E+001	3.3269160E+000	2.5642014E-003	2.4396567E+002	1.4577215E+000	1.000000000000000E+000	11	1.3263310E-001	6.2562467E-004	3.655493141352943E-005	-8.8553858E-004	4.7028437E-003	3.6461526E-004	4.7169570E-003	4.4333191E+000	1.301561249627008E-006
3.5465305E+001	2.1227058E+002	1.6979221E+001	2.1294858E+002	-4.5732703E+000	6.047714273913880E+001	3.3269119E+000	2.7058360E-003	2.6430090E+002	1.6802918E+000	1.000000000000000E+000	11	1.3263299E-001	6.2284042E-004	3.581675092602058E-005	-3.2418242E-004	4.6810182E-003	3.7442794E-004	4.6959692E-003	4.5732703E+000	-7.381804875088483E-007
3.1629551E+001	2.1324013E+002	1.7647894E+001	2.1396916E+002	-4.7310548E+000	6.120142341355677E+001	3.3269138E+000	2.6583753E-003	2.8512430E+002	1.9396243E+000	1.000000000000000E+000	11	1.3263342E-001	6.1987166E-004	3.627051360513077E-005	-4.0437613E-004	4.6576471E-003	3.8546996E-004	4.6735709E-003	4.7310548E+000	4.537626791101918E-007
2.8170074E+001	2.1426103E+002	1.8371881E+001	2.1504724E+002	-4.9008579E+000	6.200674329184403E+001	3.3269136E+000	2.5898842E-003	3.0752362E+002	2.2444918E+000	1.000000000000000E+000	11	1.3263538E-001	6.1677326E-004	3.851947094748579E-005	-4.8456987E-004	4.6331403E-003	3.9727011E-004	4.6501411E-003	4.9008579E+000	2.248957342355017E-006
2.5104435E+001	2.1532103E+002	1.9184484E+001	2.1617398E+002	-5.0914450E+000	6.276290047442308E+001	3.3269193E+000	2.7205383E-003	3.3046051E+002	2.6026335E+000	1.000000000000000E+000	11	1.3263294E-001	6.1354722E-004	3.948512936546952E-005	-4.8456987E-004	4.6076509E-003	4.1052845E-004	4.6259034E-003	5.0914450E+000	9.656584179837307E-007
2.2385387E+001	2.1646742E+002	2.0044159E+001	2.1739345E+002	-5.2903118E+000	6.344840677359025E+001	3.3269086E+000	2.7246329E-003	3.5470529E+002	3.0154383E+000	1.000000000000000E+000	11	1.3263041E-001	6.1009388E-004	3.818640586905207E-005	-7.2515110E-004	4.5803599E-003	4.2412602E-004	4.5999545E-003	5.2903118E+000	-1.298723496417446E-006
1.9955299E+001	2.1767447E+002	2.0979256E+001	2.1868311E+002	-5.5051084E+000	6.421019667646033E+001	3.3269145E+000	2.5217654E-003	3.8016473E+002	3.4988191E+000	1.000000000000000E+000	11	1.3263175E-001	6.0650206E-004	3.906706483717587E-005	-4.8456987E-004	4.5517352E-003	4.3869187E-004	4.5728269E-003	5.5051084E+000	8.806589681237999E-007
1.7796129E+001	2.1893314E+002	2.1986547E+001	2.2003438E+002	-5.7347503E+000	6.505452698320732E+001	3.3268886E+000	2.3529590E-003	4.0675937E+002	4.0613513E+000	1.000000000000000E+000	11	1.3263972E-001	6.0281361E-004	3.932630752267465E-005	-7.2515110E-004	4.5219986E-003	4.5412558E-004	4.5447443E-003	5.7347503E+000	2.592426854987708E-007
1.5857576E+001	2.2031088E+002	2.3068300E+001	2.2151530E+002	-5.9775414E+000	6.577591893752106E+001	3.3269148E+000	2.7326357E-003	4.3507861E+002	4.7183638E+000	1.000000000000000E+000	11	1.3262898E-001	5.9873506E-004	4.128163784963383E-005	-4.8456987E-004	4.4898153E-003	4.7011932E-004	4.5143608E-003	5.9775414E+000	1.955330326959183E-006
1.4118974E+001	2.2175470E+002	2.4246548E+001	2.2307631E+002	-6.2399044E+000	6.657826222895528E+001	3.3269114E+000	2.7179318E-003	4.6490808E+002	5.4923730E+000	1.000000000000000E+000	11	1.3262635E-001	5.9453357E-004	3.932562728855475E-005	-8.8553858E-004	4.4562127E-003	4.8724006E-004	4.4827708E-003	6.2399044E+000	-1.956010561079083E-006
1.2600808E+001	2.2323221E+002	2.5448391E+001	2.2467809E+002	-6.5036216E+000	6.746886501793051E+001	3.3269095E+000	2.4699324E-003	4.9631961E+002	6.3673782E+000	1.000000000000000E+000	11	1.3264175E-001	5.9036352E-004	4.102588770715617E-005	-7.2515110E-004	4.4221701E-003	5.0412578E-004	4.4508125E-003	6.5036216E+000	1.700260418601425E-006
1.1224856E+001	2.2485680E+002	2.6736553E+001	2.2644077E+002	-6.7809062E+000	6.815290873043705E+001	3.3269117E+000	2.5057599E-003	5.3031500E+002	7.3932519E+000	1.000000000000000E+000	11	1.3263054E-001	5.8571849E-004	4.028150345518144E-005	-2.4398866E-004	4.3852744E-003	5.2143022E-004	4.4161659E-003	6.7809062E+000	-7.443842519747331E-007
1.0003201E+001	2.2658661E+002	2.8078514E+001	2.2831972E+002	-7.0640564E+000	6.891370660658140E+001	3.3269143E+000	2.4555086E-003	5.6663977E+002	8.5697556E+000	1.000000000000000E+000	11	1.3263664E-001	5.8092503E-004	4.543249665859872E-005	-5.6476361E-004	4.3465775E-003	5.3862599E-004	4.3798233E-003	7.0640564E+000	5.150993203417279E-006
8.9183798E+000	2.2834860E+002	2.9506124E+001	2.3024702E+002	-7.3626928E+000	6.975802032666979E+001	3.3268893E+000	2.5050151E-003	6.0481421E+002	9.9324932E+000	1.000000000000000E+000	11	1.3264374E-001	5.7609321E-004	4.052722552826688E-005	-5.6476361E-004	4.3073511E-003	5.5657554E-004	4.3431614E-003	7.3626928E+000	-4.905271130331837E-006
7.9395342E+000	2.3027567E+002	3.1022671E+001	2.3235596E+002	-7.6726751E+000	7.069667858460161E+001	3.3269098E+000	2.4538338E-003	6.4616876E+002	1.1518520E+001	1.000000000000000E+000	11	1.3264081E-001	5.7085179E-004	4.714660717759640E-005	-5.6476361E-004	4.2652101E-003	5.7460787E-004	4.3037417E-003	7.6726751E+000	6.619381649329522E-006
7.0765405E+000	2.3223289E+002	3.2550777E+001	2.3450302E+002	-7.9788470E+000	7.125502173110726E+001	3.3269022E+000	2.9351295E-003	6.9093591E+002	1.3312623E+001	1.000000000000000E+000	11	1.3263229E-001	5.6558882E-004	4.758033387710101E-005	-7.2515110E-004	4.2230561E-003	5.9192203E-004	4.2643375E-003	7.9788470E+000	4.337266995046090E-007
6.3105822E+000	2.3429912E+002	3.4181938E+001	2.3677939E+002	-8.3003340E+000	7.187518440056010E+001	3.3269148E+000	3.2824220E-003	7.3782611E+002	1.5376575E+001	1.000000000000000E+000	11	1.3264228E-001	5.6019356E-004	4.680098706889193E-005	-3.2418242E-004	4.1791010E-003	6.0968980E-004	4.2233407E-003	8.3003340E+000	-7.793468082090840E-007
5.6205034E+000	2.3651097E+002	3.5927994E+001	2.3922429E+002	-8.6376705E+000	7.256163893985286E+001	3.3269114E+000	3.2284490E-003	7.8815564E+002	1.7777363E+001	1.000000000000000E+000	11	1.3263147E-001	5.5442308E-004	4.353674035926330E-005	-1.0459260E-003	4.1327653E-003	6.2780164E-004	4.1801776E-003	8.6376705E+000	-3.264246709628625E-006
5.0144415E+000	2.3889679E+002	3.7706249E+001	2.4185417E+002	-8.9692802E+000	7.331915748244501E+001	3.3269293E+000	2.8016840E-003	8.4175220E+002	2.0459911E+001	1.000000000000000E+000	11	1.3262285E-001	5.4835877E-004	3.987085312147731E-005	-8.8553858E-004	4.0841638E-003	6.4462348E-004	4.1347230E-003	8.9692802E+000	-3.665887237785987E-006
4.4693937E+000	2.4115965E+002	3.9487679E+001	2.4437114E+002	-9.2991371E+000	7.416049064238905E+001	3.3268797E+000	1.8791996E-003	9.0179938E+002	2.3546875E+001	1.000000000000000E+000	11	1.3264304E-001	5.4279342E-004	4.430069006560532E-005	-4.0437613E-004	4.0383581E-003	6.6124403E-004	4.0921364E-003	9.2991371E+000	4.429836944128003E-006
3.9778514E+000	2.4378502E+002	4.1532257E+001	2.4729752E+002	-9.6683292E+000	7.509720340688364E+001	3.3269031E+000	2.4626735E-003	9.6335431E+002	2.7171749E+001	1.000000000000000E+000	11	1.3263646E-001	5.3634366E-004	5.254499877299572E-005	-8.8553858E-004	3.9862772E-003	6.7911920E-004	4.0437123E-003	9.6683292E+000	8.244308707390398E-006
3.5511365E+000	2.4632721E+002	4.3437729E+001	2.5012782E+002	-1.0000812E+001	7.613839044302586E+001	3.3269210E+000	2.8683129E-003	1.0317766E+003	3.1116867E+001	1.000000000000000E+000	11	1.3264015E-001	5.3028949E-004	4.590603570413239E-005	-1.3667010E-003	3.9372081E-003	6.9429353E-004	3.9979559E-003	1.0000812E+001	-6.638963068863325E-006
3.1603966E+000	2.4933588E+002	4.5620224E+001	2.5347502E+002	-1.0368546E+001	7.730024841820705E+001	3.3269258E+000	2.5832762E-003	1.1038782E+003	3.5757374E+001	1.000000000000000E+000	11	1.3263856E-001	5.2328059E-004	4.170652480670348E-005	-4.8456987E-004	3.8807392E-003	7.1004697E-004	3.9451621E-003	1.0368546E+001	-4.199510897428907E-006
2.8183618E+000	2.5226344E+002	4.7888969E+001	2.5676877E+002	-1.0748960E+001	7.859564469311954E+001	3.3269141E+000	2.2508535E-003	1.1792010E+003	4.1017998E+001	1.000000000000000E+000	11	1.3263926E-001	5.1657081E-004	5.673283108536594E-005	-3.4074546E-006	3.8262201E-003	7.2635862E-004	3.8945547E-003	1.0748960E+001	1.502630627866245E-005
2.5136740E+000	2.5543903E+002	5.0112038E+001	2.6030811E+002	-1.1099329E+001	8.003968614836776E+001	3.3269250E+000	2.8446885E-003	1.2634822E+003	4.6825008E+001	1.000000000000000E+000	11	1.3264409E-001	5.0956570E-004	4.638589019085986E-005	-8.8553858E-004	3.7697442E-003	7.3954853E-004	3.8416015E-003	1.1099329E+001	-1.034694089450608E-005
2.2398219E+000	2.5883371E+002	5.2542061E+001	2.6411276E+002	-1.1474862E+001	8.165432382500148E+001	3.3269098E+000	2.2627832E-003	1.3523824E+003	5.3522324E+001	1.000000000000000E+000	11	1.3264349E-001	5.0222297E-004	4.723130074370905E-005	-5.6476361E-004	3.7105822E-003	7.5323129E-004	3.7862617E-003	1.1474862E+001	8.454105528491867E-007
1.9970604E+000	2.6267764E+002	5.5176277E+001	2.6841006E+002	-1.1862699E+001	8.400666223012740E+001	3.3269172E+000	1.0013955E-004	1.4443635E+003	6.1035671E+001	1.000000000000000E+000	12	1.3264507E-001	4.9418816E-004	6.000500279204021E-005	-8.8553858E-004	3.6460743E-003	7.6586957E-004	3.7256428E-003	1.1862699E+001	1.277370204833117E-005
1.7796129E+000	2.6618527E+002	5.7791096E+001	2.7238651E+002	-1.2249303E+001	8.602494059264427E+001	3.3269203E+000	6.8833277E-004	1.5475106E+003	6.9660141E+001	1.000000000000000E+000	12	1.3264214E-001	4.8696296E-004	3.917356302771400E-005	-4.8456987E-004	3.5876730E-003	7.7891443E-004	3.6712538E-003	1.2249303E+001	-2.083143976432621E-005
1.5846854E+000	2.7006326E+002	6.0527328E+001	2.7676294E+002	-1.2632535E+001	8.828410973990685E+001	3.3269229E+000	-1.5631880E-004	1.6593025E+003	7.9362022E+001	1.000000000000000E+000	12	1.3264632E-001	4.7927778E-004	5.402840264110677E-005	-4.8456987E-004	3.5257349E-003	7.9019746E-004	3.6132005E-003	1.2632535E+001	1.485483961339277E-005
1.4122382E+000	2.7411380E+002	6.3469875E+001	2.8136597E+002	-1.3036849E+001	9.081312295337557E+001	3.3269296E+000	3.1300983E-004	1.7755974E+003	9.0351768E+001	1.000000000000000E+000	12	1.3264222E-001	4.7142242E-004	5.072515210309292E-005	7.6786280E-005	3.4624841E-003	8.0172333E-004	3.5540902E-003	1.3036849E+001	-3.303250538013850E-006
1.2596743E+000	2.7825574E+002	6.6513329E+001	2.8609488E+002	-1.3443534E+001	9.364189295441611E+001	3.3269258E+000	1.5219919E-004	1.8995605E+003	1.0267161E+002	1.000000000000000E+000	12	1.3264576E-001	4.6364256E-004	4.124174136021854E-005	-4.8456987E-004	3.3995698E-003	8.1262190E-004	3.4953440E-003	1.3443534E+001	-9.483410742874389E-006
1.1224856E+000	2.8259204E+002	6.9705498E+001	2.9106204E+002	-1.3856249E+001	9.681013878490194E+001	3.3269255E+000	1.2807363E-004	2.0341001E+003	1.1666356E+002	1.000000000000000E+000	12	1.3264483E-001	4.5572701E-004	6.380453394882271E-005	-7.2515110E-004	3.3357136E-003	8.2280306E-004	3.4356937E-003	1.3856249E+001	2.256279258860418E-005
1.0000638E+000	2.8713882E+002	7.3034622E+001	2.9628156E+002	-1.4270740E+001	1.003592713267717E+002	3.3269260E+000	4.7879829E-004	2.1790322E+003	1.3240732E+002	1.000000000000000E+000	12	1.3264652E-001	4.4770425E-004	3.083692701930542E-005	-1.4468947E-003	3.2710161E-003	8.3199277E-004	3.3751680E-003	1.4270740E+001	-3.296760692951729E-005