EC-Lab ASCII FILE
Nb header lines : 60                          

Potentio Electrochemical Impedance Spectroscopy

Run on channel : 6 (SN 41300)
User : 
CE vs. WE compliance from -10 V to 10 V
Electrode connection : standard
Ewe ctrl range : min = -10.00 V, max = 10.00 V
Acquisition started on : 12/03/2020 16:53:40
Technique started on : 12/03/2020 16:53:41
Saved on :
	File : DE_206_6_30.mpr
	Directory : P:\Chemistry\Data\VMP3\Kyler\DOE\DE_206\
	Host : 10.0.4.64
Device : VMP3 (SN 1432)
Address : USB
EC-Lab for windows v11.33 (software)
Internet server v11.32 (firmware)
Command interpretor v11.33 (firmware)
Electrode material : 
Initial state : 
Electrolyte : 
Comments : 
Electrode surface area : 0.001 cm²
Characteristic mass : 0.001 g
Equivalent Weight : 0.000 g/eq.
Density : 0.000 g/cm3
Record Analogic IN 1
Cycle Definition : Charge/Discharge alternance
Mode                Single sine         
E (V)               0.0000              
vs.                 Eoc                 
tE (h:m:s)          0:00:0.0000         
record              0                   
dI                  1.000               
unit dI             mA                  
dt (s)              0.000               
fi                  1.000               
unit fi             MHz                 
ff                  1.000               
unit ff             Hz                  
Nd                  20                  
Points              per decade          
spacing             Logarithmic         
Va (mV)             128.0               
pw                  0.50                
Na                  3                   
corr                0                   
E range min (V)     -10.000             
E range max (V)     10.000              
I Range             Auto                
Bandwidth           5                   
nc cycles           0                   
goto Ns'            0                   
nr cycles           0                   
inc. cycle          1                   

freq/Hz	Re(Z)/Ohm	-Im(Z)/Ohm	|Z|/Ohm	Phase(Z)/deg	time/s	<Ewe>/V	<I>/mA	Cs/µF	Cp/µF	cycle number	I Range	|Ewe|/V	|I|/A	(Q-Qo)/mA.h	Analog IN 1/V	Re(Y)/Ohm-1	Im(Y)/Ohm-1	|Y|/Ohm-1	Phase(Y)/deg	dq/mA.h	
1.0000186E+006	-1.1586392E+001	4.5434338E+001	4.6888416E+001	-1.0430630E+002	1.845600087690400E+000	3.3261247E+000	2.1290043E-001	3.5029009E-003	3.2890097E-003	1.000000000000000E+000	9	5.6161167E-005	1.1977621E-006	2.258346860511079E-005	-7.9964736E-004	-5.2700788E-003	2.0665841E-002	2.1327229E-002	1.0430630E+002	2.258346860511079E-005
8.9124669E+005	8.9442780E+001	3.3521446E+001	9.5518051E+001	-2.0545038E+001	3.020473076758208E+000	3.3256636E+000	1.2244381E-003	5.3272056E-003	6.5610604E-004	1.000000000000000E+000	11	6.8217027E-004	7.1417944E-006	4.258003100940186E-005	-5.5914529E-004	9.8033473E-003	3.6741071E-003	1.0469225E-002	2.0545038E+001	1.999656240429107E-005
7.9433269E+005	9.3567139E+001	3.2067516E+001	9.8909729E+001	-1.8917717E+001	3.615485798363807E+000	3.3254685E+000	8.4005733E-004	6.2481635E-003	6.5675745E-004	1.000000000000000E+000	11	1.8213270E-003	1.8414034E-005	4.272395507199245E-005	-6.3931267E-004	9.5641268E-003	3.2778368E-003	1.0110229E-002	1.8917717E+001	1.439240625905876E-007
7.0794981E+005	9.7334724E+001	3.1029564E+001	1.0216106E+002	-1.7681883E+001	4.210489319957560E+000	3.3254011E+000	7.3907356E-004	7.2450596E-003	6.6837855E-004	1.000000000000000E+000	11	3.5897556E-003	3.5138197E-005	4.301235238971478E-005	-2.3847583E-004	9.3260342E-003	2.9730680E-003	9.7884648E-003	1.7681883E+001	2.883973177223302E-007
6.3095681E+005	1.0086478E+002	3.0275059E+001	1.0531042E+002	-1.6707386E+001	4.806473241624190E+000	3.3254066E+000	9.0154581E-004	8.3317365E-003	6.8859337E-004	1.000000000000000E+000	11	6.0745743E-003	5.7682559E-005	4.340938326633775E-005	-7.8141107E-005	9.0948790E-003	2.7298725E-003	9.4957370E-003	1.6707386E+001	3.970308766229711E-007
5.6234225E+005	1.0412096E+002	2.9634192E+001	1.0825600E+002	-1.5887048E+001	5.401480523200007E+000	3.3254166E+000	9.5930474E-004	9.5505053E-003	7.1566302E-004	1.000000000000000E+000	11	9.3201771E-003	8.6093867E-005	4.353194565175206E-005	-2.3847583E-004	8.8845268E-003	2.5286525E-003	9.2373639E-003	1.5887048E+001	1.225623854143098E-007
5.0120619E+005	1.0712532E+002	2.8888874E+001	1.1095225E+002	-1.5092145E+001	5.998474124906352E+000	3.3254528E+000	1.0006696E-003	1.0991909E-002	7.4518163E-004	1.000000000000000E+000	11	1.3391647E-002	1.2069739E-004	4.356616239857982E-005	-2.3847583E-004	8.7020164E-003	2.3467045E-003	9.0128863E-003	1.5092145E+001	3.421674682775448E-008
4.4668572E+005	1.0995954E+002	2.8202642E+001	1.1351868E+002	-1.4385251E+001	6.594485113193514E+000	3.3254957E+000	1.0630877E-003	1.2633633E-002	7.7978201E-004	1.000000000000000E+000	11	1.8277310E-002	1.6100708E-004	4.347827393921529E-005	-4.7897792E-004	8.5329320E-003	2.1885433E-003	8.8091232E-003	1.4385251E+001	-8.788845936452423E-008
3.9810347E+005	1.1248375E+002	2.7374868E+001	1.1576691E+002	-1.3678019E+001	7.190485408151289E+000	3.3255184E+000	1.2201563E-003	1.4604011E-002	8.1659621E-004	1.000000000000000E+000	11	2.3982882E-002	2.0716527E-004	4.355406313353817E-005	-6.3931267E-004	8.3930716E-003	2.0425993E-003	8.6380476E-003	1.3678019E+001	7.578919432287684E-008
3.5480997E+005	1.1480439E+002	2.6565466E+001	1.1783791E+002	-1.3028797E+001	7.787492103205295E+000	3.3255453E+000	1.3893400E-003	1.6885227E-002	8.5816684E-004	1.000000000000000E+000	11	3.0555090E-002	2.5929764E-004	4.438749002685513E-005	-1.5830847E-004	8.2677715E-003	1.9131429E-003	8.4862337E-003	1.3028797E+001	8.334268933169576E-007
3.1622997E+005	1.1700855E+002	2.5688517E+001	1.1979525E+002	-1.2382491E+001	8.382494318095269E+000	3.3255320E+000	1.2602216E-003	1.9591969E-002	9.0090075E-004	1.000000000000000E+000	11	3.8058139E-002	3.1769322E-004	4.486887981532770E-005	-8.7981473E-004	8.1533939E-003	1.7900281E-003	8.3475765E-003	1.2382491E+001	4.813897884725741E-007
2.8183453E+005	1.1902164E+002	2.4808933E+001	1.2157974E+002	-1.1774175E+001	8.978483546437928E+000	3.3255062E+000	1.2041403E-003	2.2762388E-002	9.4778882E-004	1.000000000000000E+000	11	4.6509102E-002	3.8253990E-004	4.473233670337929E-005	-5.5914529E-004	8.0519952E-003	1.6783620E-003	8.2250545E-003	1.1774175E+001	-1.365431119484131E-007
2.5118764E+005	1.2089509E+002	2.3946625E+001	1.2324392E+002	-1.1203991E+001	9.574476854730165E+000	3.3255026E+000	1.2540752E-003	2.6459251E-002	9.9893031E-004	1.000000000000000E+000	11	5.5973213E-002	4.5416612E-004	4.537476393186747E-005	-3.9881055E-004	7.9593509E-003	1.5765701E-003	8.1139905E-003	1.1203991E+001	6.424272284881807E-007
2.2387173E+005	1.2263938E+002	2.3050335E+001	1.2478676E+002	-1.0644680E+001	1.016947445631376E+001	3.3254986E+000	1.3245045E-003	3.0842079E-002	1.0523521E-003	1.000000000000000E+000	11	6.6460952E-002	5.3259620E-004	4.459831893921061E-005	8.2193612E-005	7.8757675E-003	1.4802676E-003	8.0136703E-003	1.0644680E+001	-7.764449926568593E-007
1.9954350E+005	1.2428726E+002	2.2211803E+001	1.2625644E+002	-1.0132556E+001	1.076648547136574E+001	3.3254745E+000	1.1683708E-003	3.5908621E-002	1.1113717E-003	1.000000000000000E+000	11	7.7935256E-002	6.1727746E-004	4.595357989417344E-005	-3.9881055E-004	7.7968570E-003	1.3934030E-003	7.9203881E-003	1.0132556E+001	1.355260954962835E-006
1.7783180E+005	1.2582066E+002	2.1404963E+001	1.2762841E+002	-9.6548834E+000	1.136147675293614E+001	3.3254514E+000	1.1406132E-003	4.1811548E-002	1.1760627E-003	1.000000000000000E+000	11	9.0413481E-002	7.0841186E-004	4.486764662464156E-005	-7.1947998E-004	7.7242660E-003	1.3140738E-003	7.8352457E-003	9.6548834E+000	-1.085933269531880E-006
1.5848613E+005	1.2728784E+002	2.0589867E+001	1.2894238E+002	-9.1884794E+000	1.195748512793216E+001	3.3254437E+000	1.0029249E-003	4.8772536E-002	1.2436296E-003	1.000000000000000E+000	11	1.0383306E-001	8.0526707E-004	4.396975579801579E-005	-4.7897792E-004	7.6558879E-003	1.2384035E-003	7.7554020E-003	9.1884794E+000	-8.978908266257717E-007
1.4125594E+005	1.2868085E+002	1.9844097E+001	1.3020195E+002	-8.7666235E+000	1.241748717645532E+001	3.3254628E+000	1.1970730E-003	5.6778260E-002	1.3188936E-003	1.000000000000000E+000	11	1.1824706E-001	9.0818200E-004	4.364213349842875E-005	-3.1864320E-004	7.5906492E-003	1.1705672E-003	7.6803765E-003	8.7666235E+000	-3.276222995870427E-007
1.2590930E+005	1.3000082E+002	1.9096308E+001	1.3139590E+002	-8.3566284E+000	1.287748877159902E+001	3.3254728E+000	1.2373156E-003	6.6193134E-002	1.3981317E-003	1.000000000000000E+000	11	1.3375002E-001	1.0179162E-003	4.463028123402445E-005	-7.1947998E-004	7.5297831E-003	1.1060782E-003	7.6105874E-003	8.3566284E+000	9.881477355957004E-007
1.1220494E+005	1.3125761E+002	1.8388954E+001	1.3253949E+002	-7.9751277E+000	1.347249367987388E+001	3.3254857E+000	1.1940878E-003	7.7134937E-002	1.4848227E-003	1.000000000000000E+000	11	1.2992936E-001	9.8030677E-004	4.352213747693996E-005	-6.3931267E-004	7.4719498E-003	1.0468066E-003	7.5449212E-003	7.9751277E+000	-1.108143757084487E-006
1.0000371E+005	1.3244388E+002	1.7712681E+001	1.3362305E+002	-7.6173811E+000	1.406848888154491E+001	3.3254979E+000	1.3779871E-003	8.9850336E-002	1.5787943E-003	1.000000000000000E+000	11	1.2978822E-001	9.7130117E-004	4.329783684995770E-005	-3.9881055E-004	7.4176979E-003	9.9202257E-004	7.4837389E-003	7.6173811E+000	-2.243006269822618E-007
8.9129305E+004	1.3357423E+002	1.7075632E+001	1.3466125E+002	-7.2849660E+000	1.466347709644469E+001	3.3255146E+000	1.3627122E-003	1.0457379E-001	1.6814776E-003	1.000000000000000E+000	11	1.2964302E-001	9.6273446E-004	4.171048849433707E-005	-6.3931267E-004	7.3660961E-003	9.4165426E-004	7.4260412E-003	7.2849660E+000	-1.587348355620632E-006
7.9433273E+004	1.3463974E+002	1.6470325E+001	1.3564340E+002	-6.9742761E+000	1.525849608468707E+001	3.3255479E+000	1.6339954E-003	1.2165096E-001	1.7935872E-003	1.000000000000000E+000	11	1.2968495E-001	9.5607270E-004	4.223919874558427E-005	-1.5830847E-004	7.3177228E-003	8.9516857E-004	7.3722717E-003	6.9742761E+000	5.287102512471987E-007
7.0794977E+004	1.3566254E+002	1.5898599E+001	1.3659096E+002	-6.6841331E+000	1.585447395304800E+001	3.3255234E+000	1.3819039E-003	1.4140306E-001	1.9157226E-003	1.000000000000000E+000	11	1.2949686E-001	9.4806316E-004	4.397619015063800E-005	1.6236097E-004	7.2713662E-003	8.5214782E-004	7.3211286E-003	6.6841331E+000	1.736991405053733E-006
6.3093828E+004	1.3663441E+002	1.5368567E+001	1.3749602E+002	-6.4176259E+000	1.645048718134058E+001	3.3255332E+000	1.4068711E-003	1.6413449E-001	2.0506256E-003	1.000000000000000E+000	11	1.2943411E-001	9.4136619E-004	4.395743110530202E-005	-1.5830847E-004	7.2273626E-003	8.1293000E-004	7.2729378E-003	6.4176259E+000	-1.875904533597659E-008
5.6237012E+004	1.3753363E+002	1.4885063E+001	1.3833678E+002	-6.1769953E+000	1.704548736961442E+001	3.3255396E+000	1.4256892E-003	1.9012851E-001	2.2012698E-003	1.000000000000000E+000	11	1.2926079E-001	9.3439216E-004	4.607447614547326E-005	-5.5914529E-004	7.1867676E-003	7.7781331E-004	7.2287358E-003	6.1769953E+000	2.117045040171232E-006
5.0122477E+004	1.3840240E+002	1.4448521E+001	1.3915454E+002	-5.9598055E+000	1.750548389813048E+001	3.3255384E+000	1.3474320E-003	2.1976788E-001	2.3692790E-003	1.000000000000000E+000	11	1.4023571E-001	1.0077695E-003	4.557091034507761E-005	-3.9881055E-004	7.1474132E-003	7.4615428E-004	7.1862550E-003	5.9598055E+000	-5.035658003956425E-007
4.4666715E+004	1.3923190E+002	1.4064363E+001	1.3994044E+002	-5.7681069E+000	1.810047637971002E+001	3.3255434E+000	1.3863749E-003	2.5334716E-001	2.5589964E-003	1.000000000000000E+000	11	1.3039881E-001	9.3181641E-004	4.531457603824694E-005	-4.7897792E-004	7.1097161E-003	7.1818044E-004	7.1458970E-003	5.7681069E+000	-2.563343068306709E-007
3.9814063E+004	1.4003719E+002	1.3730080E+001	1.4070866E+002	-5.5997219E+000	1.855948874817113E+001	3.3255589E+000	1.4469255E-003	2.9114583E-001	2.7721392E-003	1.000000000000000E+000	11	1.3959552E-001	9.9208904E-004	4.590885874908438E-005	-4.7897792E-004	7.0729679E-003	6.9347594E-004	7.1068830E-003	5.5997219E+000	5.942827108374349E-007
3.5480996E+004	1.4078070E+002	1.3440318E+001	1.4142082E+002	-5.4534931E+000	1.915447365641012E+001	3.3255508E+000	1.3975541E-003	3.3374500E-001	3.0144437E-003	1.000000000000000E+000	11	1.3002352E-001	9.1940863E-004	4.731804648579196E-005	-4.7897792E-004	7.0390883E-003	6.7202101E-004	7.0710946E-003	5.4534931E+000	1.409187736707581E-006
3.1621143E+004	1.4152652E+002	1.3218067E+001	1.4214244E+002	-5.3357406E+000	1.961348733157502E+001	3.3255680E+000	1.4487928E-003	3.8078043E-001	3.2927820E-003	1.000000000000000E+000	11	1.3727921E-001	9.6578622E-004	4.808087324640191E-005	-1.5830847E-004	7.0047118E-003	6.5421482E-004	7.0351963E-003	5.3357406E+000	7.628267606099486E-007
2.8188096E+004	1.4223759E+002	1.3055953E+001	1.4283554E+002	-5.2444692E+000	2.020847706650966E+001	3.3255544E+000	1.4152550E-003	4.3245986E-001	3.6131868E-003	1.000000000000000E+000	11	1.2951830E-001	9.0676523E-004	4.706384559229405E-005	-2.3847583E-004	6.9717504E-003	6.3993520E-004	7.0010587E-003	5.2444692E+000	-1.017027654107852E-006
2.5116910E+004	1.4293152E+002	1.2954282E+001	1.4351736E+002	-5.1787271E+000	2.066747559493524E+001	3.3255675E+000	1.4368684E-003	4.8914832E-001	3.9852755E-003	1.000000000000000E+000	11	1.3495760E-001	9.4035728E-004	4.652221840422155E-005	-2.3847583E-004	6.9393553E-003	6.2893308E-004	6.9677979E-003	5.1787271E+000	-5.416271880725009E-007
2.2389027E+004	1.4361790E+002	1.2897274E+001	1.4419585E+002	-5.1315503E+000	2.112647329675383E+001	3.3255751E+000	1.4245715E-003	5.5117178E-001	4.4093779E-003	1.000000000000000E+000	11	1.3975112E-001	9.6917577E-004	4.764594694443015E-005	-4.7897792E-004	6.9072167E-003	6.2028668E-004	6.9350125E-003	5.1315503E+000	1.123728540208599E-006
1.9948783E+004	1.4431703E+002	1.2906059E+001	1.4489297E+002	-5.1102824E+000	2.172249153841403E+001	3.3255703E+000	1.4458121E-003	6.1817306E-001	4.9045901E-003	1.000000000000000E+000	11	1.2965894E-001	8.9486007E-004	4.898337879462653E-005	-5.5914529E-004	6.8742125E-003	6.1475066E-004	6.9016460E-003	5.1102824E+000	1.337431850196381E-006
1.7786895E+004	1.4498831E+002	1.2993870E+001	1.4556940E+002	-5.1211734E+000	2.218249500027741E+001	3.3255799E+000	1.4551284E-003	6.8862295E-001	5.4867901E-003	1.000000000000000E+000	11	1.3285050E-001	9.1262656E-004	4.936779072454556E-005	-1.5830847E-004	6.8421536E-003	6.1319466E-004	6.8695759E-003	5.1211734E+000	3.844119299190236E-007
1.5847686E+004	1.4567755E+002	1.3135873E+001	1.4626859E+002	-5.1524768E+000	2.264149686202290E+001	3.3255813E+000	1.4990987E-003	7.6453143E-001	6.1661075E-003	1.000000000000000E+000	11	1.3556503E-001	9.2682260E-004	4.993639975837323E-005	-4.7897792E-004	6.8091122E-003	6.1398366E-004	6.8367380E-003	5.1524768E+000	5.686090338276681E-007
1.4121879E+004	1.4638763E+002	1.3339177E+001	1.4699413E+002	-5.2065444E+000	2.310147443055757E+001	3.3255787E+000	1.4691015E-003	8.4488696E-001	6.9575561E-003	1.000000000000000E+000	11	1.3781798E-001	9.3757472E-004	4.978507931932129E-005	-4.7897792E-004	6.7749242E-003	6.1734667E-004	6.8029929E-003	5.2065444E+000	-1.513204390519399E-007
1.2590932E+004	1.4711530E+002	1.3617977E+001	1.4774423E+002	-5.2886105E+000	2.356149050573003E+001	3.3255754E+000	1.4210317E-003	9.2821729E-001	7.8859460E-003	1.000000000000000E+000	11	1.3965502E-001	9.4524858E-004	5.057521115465533E-005	-5.5914529E-004	6.7396406E-003	6.2386633E-004	6.7684539E-003	5.2886105E+000	7.901318353340493E-007
1.1217711E+004	1.4787965E+002	1.3945606E+001	1.4853577E+002	-5.3872747E+000	2.415749061407405E+001	3.3255739E+000	1.4355637E-003	1.0173690E+000	8.9679100E-003	1.000000000000000E+000	11	1.2932801E-001	8.7068602E-004	5.123459808160441E-005	2.0262523E-006	6.7026471E-003	6.3208479E-004	6.7323851E-003	5.3872747E+000	6.593869269490803E-007
1.0002229E+004	1.4866388E+002	1.4345773E+001	1.4935445E+002	-5.5118642E+000	2.461649567584391E+001	3.3255835E+000	1.5095334E-003	1.1091732E+000	1.0233188E-002	1.000000000000000E+000	11	1.3043311E-001	8.7331259E-004	5.100873624082649E-005	-1.5830847E-004	6.6645243E-003	6.4311351E-004	6.6954819E-003	5.5118642E+000	-2.258618407779213E-007
8.9149297E+003	1.4948648E+002	1.4807918E+001	1.5021811E+002	-5.6571827E+000	2.509892796547501E+001	3.3256171E+000	1.7273426E-003	1.2056139E+000	1.1715251E-002	1.000000000000000E+000	11	1.3131514E-001	8.7416318E-004	5.175237017516843E-005	-5.5914529E-004	6.6245645E-003	6.5621990E-004	6.6569871E-003	5.6571827E+000	7.436339343419400E-007
7.9439976E+003	1.5036014E+002	1.5330173E+001	1.5113962E+002	-5.8215528E+000	2.562497937711305E+001	3.3256280E+000	1.6884016E-003	1.3068749E+000	1.3445329E-002	1.000000000000000E+000	11	1.3200641E-001	8.7340706E-004	5.181388093674731E-005	1.6236097E-004	6.5822755E-003	6.7110482E-004	6.6163987E-003	5.8215528E+000	6.151076157887643E-008
7.0822334E+003	1.5129907E+002	1.5924644E+001	1.5213483E+002	-6.0084157E+000	2.620188783120830E+001	3.3256280E+000	1.6850487E-003	1.4111727E+000	1.5461882E-002	1.000000000000000E+000	11	1.3255605E-001	8.7130646E-004	5.172879296900909E-005	-3.1864320E-004	6.5370076E-003	6.8803795E-004	6.5731169E-003	6.0084157E+000	-8.508796773822004E-008
6.3077344E+003	1.5230424E+002	1.6567900E+001	1.5320274E+002	-6.2083144E+000	2.683553500790731E+001	3.3256304E+000	1.5425127E-003	1.5229278E+000	1.7810704E-002	1.000000000000000E+000	11	1.3299176E-001	8.6807692E-004	5.236581195484117E-005	2.0262523E-006	6.4890175E-003	7.0588564E-004	6.5272981E-003	6.2083144E+000	6.370189858320792E-007
5.6210552E+003	1.5338380E+002	1.7260155E+001	1.5435188E+002	-6.4204378E+000	2.753625224120333E+001	3.3256502E+000	1.6688369E-003	1.6404295E+000	2.0512711E-002	1.000000000000000E+000	11	1.3331598E-001	8.6371461E-004	5.326548445499652E-005	-7.8141107E-005	6.4380695E-003	7.2447065E-004	6.4787031E-003	6.4204378E+000	8.996725001553482E-007
5.0116035E+003	1.5454681E+002	1.8007042E+001	1.5559233E+002	-6.6458588E+000	2.829666998403991E+001	3.3256559E+000	1.6515086E-003	1.7636038E+000	2.3621606E-002	1.000000000000000E+000	11	1.3356985E-001	8.5846038E-004	5.421216344815932E-005	-6.3931267E-004	6.3838651E-003	7.4381684E-004	6.4270520E-003	6.6458588E+000	9.466789931628024E-007
4.4664292E+003	1.5580931E+002	1.8775942E+001	1.5693654E+002	-6.8713465E+000	2.905669938014034E+001	3.3256547E+000	1.6397706E-003	1.8978329E+000	2.7165223E-002	1.000000000000000E+000	11	1.3376400E-001	8.5234450E-004	5.524235389174060E-005	8.2193612E-005	6.3262344E-003	7.6234859E-004	6.3720024E-003	6.8713465E+000	1.030190443581283E-006
3.9812742E+003	1.5716336E+002	1.9593094E+001	1.5837996E+002	-7.1062331E+000	2.981569066952216E+001	3.3256593E+000	1.6418193E-003	2.0403047E+000	3.1224867E-002	1.000000000000000E+000	11	1.3390104E-001	8.4544183E-004	5.504926765687499E-005	-3.1864320E-004	6.2654298E-003	7.8109273E-004	6.3139303E-003	7.1062331E+000	-1.930862348656123E-007
3.5465955E+003	1.5864815E+002	2.0428183E+001	1.5995795E+002	-7.3372650E+000	3.057596307893982E+001	3.3256614E+000	1.6869094E-003	2.1967406E+000	3.5828330E-002	1.000000000000000E+000	11	1.3400486E-001	8.3775056E-004	5.578301298712763E-005	-3.9881055E-004	6.2004519E-003	7.9839549E-004	6.2516429E-003	7.3372650E+000	7.337453302526362E-007
3.1610112E+003	1.6022392E+002	2.1263800E+001	1.6162875E+002	-7.5597200E+000	3.133568154172099E+001	3.3256595E+000	1.6531857E-003	2.3678448E+000	4.0982433E-002	1.000000000000000E+000	11	1.3407794E-001	8.2954258E-004	5.583362003744636E-005	-7.8141107E-005	6.1332420E-003	8.1396109E-004	6.1870180E-003	7.5597200E+000	5.060705031873251E-008
2.8172952E+003	1.6193921E+002	2.2086803E+001	1.6343848E+002	-7.7666192E+000	3.209594968447345E+001	3.3256698E+000	1.6796426E-003	2.5577314E+000	4.6710234E-002	1.000000000000000E+000	11	1.3412195E-001	8.2062656E-004	5.552286423082458E-005	-2.3847583E-004	6.0623838E-003	8.2684529E-004	6.1185104E-003	7.7666192E+000	-3.107558066217786E-007
2.5108032E+003	1.6376619E+002	2.2885248E+001	1.6535748E+002	-7.9551921E+000	3.285570420058502E+001	3.3256652E+000	1.6822503E-003	2.7698216E+000	5.3053662E-002	1.000000000000000E+000	11	1.3414614E-001	8.1124925E-004	5.569692611603811E-005	-4.7897792E-004	5.9893061E-003	8.3696615E-004	6.0475036E-003	7.9551921E+000	1.740618852135288E-007
2.2378516E+003	1.6571262E+002	2.3642160E+001	1.6739063E+002	-8.1195745E+000	3.361596967666992E+001	3.3256645E+000	1.6654817E-003	3.0081654E+000	6.0008638E-002	1.000000000000000E+000	11	1.3415816E-001	8.0146763E-004	5.663542734789553E-005	-4.7897792E-004	5.9141628E-003	8.4377162E-004	5.9740501E-003	8.1195745E+000	9.385012318574213E-007
1.9956389E+003	1.6778119E+002	2.4331465E+001	1.6953627E+002	-8.2514553E+000	3.437567944611510E+001	3.3256736E+000	1.7688904E-003	3.2777054E+000	6.7512035E-002	1.000000000000000E+000	11	1.3416439E-001	7.9136103E-004	5.649916760310528E-005	-3.1864320E-004	5.8373809E-003	8.4653130E-004	5.8984431E-003	8.2514553E+000	-1.362597447902516E-007
1.7782927E+003	1.6997159E+002	2.4927794E+001	1.7178979E+002	-8.3434391E+000	3.513494406882091E+001	3.3256569E+000	1.6643635E-003	3.5903189E+000	7.5597249E-002	1.000000000000000E+000	11	1.3416117E-001	7.8096124E-004	5.734978927155983E-005	-1.5830847E-004	5.7594576E-003	8.4467395E-004	5.8210674E-003	8.3434391E+000	8.506216684545554E-007
1.5855076E+003	1.7224648E+002	2.5421144E+001	1.7411227E+002	-8.3954411E+000	3.589470933159464E+001	3.3256426E+000	1.4903387E-003	3.9487236E+000	8.4175967E-002	1.000000000000000E+000	11	1.3415447E-001	7.7050552E-004	5.716946064054132E-005	2.0262523E-006	5.6818738E-003	8.3856418E-004	5.7434207E-003	8.3954411E+000	-1.803286310185110E-007
1.4118373E+003	1.7461598E+002	2.5800653E+001	1.7651180E+002	-8.4050121E+000	3.665619827437331E+001	3.3256562E+000	1.6777779E-003	4.3692288E+000	9.3350947E-002	1.000000000000000E+000	11	1.3413388E-001	7.5991452E-004	5.802934454590064E-005	-3.1864320E-004	5.6044953E-003	8.2810083E-004	5.6653437E-003	8.4050121E+000	8.598839053593126E-007
1.2587914E+003	1.7703471E+002	2.6017570E+001	1.7893631E+002	-8.3605175E+000	3.741592276384472E+001	3.3256538E+000	1.5933746E-003	4.8595896E+000	1.0273919E-001	1.000000000000000E+000	11	1.3411784E-001	7.4952835E-004	5.799183101958564E-005	2.0262523E-006	5.5291895E-003	8.1258686E-004	5.5885809E-003	8.3605175E+000	-3.751352631499737E-008
1.1217948E+003	1.7949261E+002	2.6100813E+001	1.8138040E+002	-8.2736416E+000	3.817445661316742E+001	3.3256648E+000	1.7092652E-003	5.4356647E+000	1.1255895E-001	1.000000000000000E+000	11	1.3410702E-001	7.3936890E-004	5.872940911797640E-005	-2.3847583E-004	5.4558935E-003	7.9336559E-004	5.5132750E-003	8.2736416E+000	7.375780983907620E-007
1.0003201E+003	1.8192989E+002	2.6016495E+001	1.8378069E+002	-8.1382847E+000	3.893366904927097E+001	3.3256724E+000	1.6597044E-003	6.1155057E+000	1.2255476E-001	1.000000000000000E+000	11	1.3409123E-001	7.2962634E-004	5.948337208691171E-005	-7.9964736E-004	5.3864704E-003	7.7028072E-004	5.4412680E-003	8.1382847E+000	7.539629689353093E-007
8.9142657E+002	1.8435175E+002	2.5778109E+001	1.8614531E+002	-7.9601192E+000	3.969241524525569E+001	3.3256578E+000	1.6052977E-003	6.9260159E+000	1.3282548E-001	1.000000000000000E+000	11	1.3407114E-001	7.2024990E-004	6.023838773717782E-005	-4.7897792E-004	5.3203846E-003	7.4395532E-004	5.3721471E-003	7.9601192E+000	7.550156502661125E-007
7.9423773E+002	1.8675185E+002	2.5389294E+001	1.8846980E+002	-7.7420125E+000	4.045192362804664E+001	3.3256562E+000	1.6628708E-003	7.8925800E+000	1.4323089E-001	1.000000000000000E+000	11	1.3405451E-001	7.1127847E-004	6.053382370593843E-005	-2.3847583E-004	5.2575250E-003	7.1477127E-004	5.3058900E-003	7.7420125E+000	2.954359687606074E-007
7.0750946E+002	1.8904126E+002	2.4875093E+001	1.9067084E+002	-7.4962282E+000	4.121447139754309E+001	3.3256590E+000	1.6229976E-003	9.0432215E+000	1.5391611E-001	1.000000000000000E+000	11	1.3403769E-001	7.0297951E-004	6.111345033226866E-005	-2.3847583E-004	5.1998170E-003	6.8422069E-004	5.2446406E-003	7.4962282E+000	5.796266263302337E-007
6.3100964E+002	1.9122697E+002	2.4241526E+001	1.9275739E+002	-7.2247539E+000	4.197241436687182E+001	3.3256593E+000	1.5872242E-003	1.0404571E+001	1.6455916E-001	1.000000000000000E+000	11	1.3402773E-001	6.9531827E-004	6.160581652407038E-005	-3.9881055E-004	5.1466795E-003	6.5243593E-004	5.1878686E-003	7.2247539E+000	4.923661918017163E-007
5.6233929E+002	1.9328874E+002	2.3512190E+001	1.9471353E+002	-6.9355464E+000	4.272894512285711E+001	3.3256531E+000	1.5525681E-003	1.2037288E+001	1.7551835E-001	1.000000000000000E+000	11	1.3401836E-001	6.8828481E-004	6.144008840437527E-005	-1.5830847E-004	5.0981697E-003	6.2015577E-004	5.1357499E-003	6.9355464E+000	-1.657281196951074E-007
5.0144415E+002	1.9520866E+002	2.2713308E+001	1.9652562E+002	-6.6367502E+000	4.348618545211502E+001	3.3256500E+000	1.5799569E-003	1.3973886E+001	1.8665500E-001	1.000000000000000E+000	11	1.3400860E-001	6.8188872E-004	6.233044986226701E-005	-3.1864320E-004	5.0542969E-003	5.8808766E-004	5.0883950E-003	6.6367502E+000	8.903614578917345E-007
4.4685895E+002	1.9702243E+002	2.1880962E+001	1.9823373E+002	-6.3371987E+000	4.424190562136937E+001	3.3256576E+000	1.6006378E-003	1.6277334E+001	1.9831747E-001	1.000000000000000E+000	11	1.3400975E-001	6.7601888E-004	6.215262430085851E-005	-3.9881055E-004	5.0137253E-003	5.5681547E-004	5.0445502E-003	6.3371987E+000	-1.778255614084961E-007
3.9808920E+002	1.9864557E+002	2.1015661E+001	1.9975415E+002	-6.0391293E+000	4.500470288429642E+001	3.3256493E+000	1.6045509E-003	1.9023773E+001	2.1056741E-001	1.000000000000000E+000	11	1.3399079E-001	6.7077851E-004	6.248958316612900E-005	1.6236097E-004	4.9783709E-003	5.2668556E-004	5.0061536E-003	6.0391293E+000	3.369588652704869E-007
3.5465955E+002	2.0019263E+002	2.0153988E+001	2.0120454E+002	-5.7487679E+000	4.576494702705531E+001	3.3256557E+000	1.5825640E-003	2.2266270E+001	2.2340553E-001	1.000000000000000E+000	11	1.3399342E-001	6.6595624E-004	6.318292002179764E-005	-3.9881055E-004	4.9450705E-003	4.9783499E-004	4.9700667E-003	5.7487679E+000	6.933368556686454E-007
3.1631586E+002	2.0155618E+002	1.9335487E+001	2.0248149E+002	-5.4796734E+000	4.652192900967202E+001	3.3256485E+000	1.5609501E-003	2.6022202E+001	2.3729229E-001	1.000000000000000E+000	11	1.3398561E-001	6.6171779E-004	6.303850703459506E-005	-3.9881055E-004	4.9161538E-003	4.7161157E-004	4.9387231E-003	5.4796734E+000	-1.444129872025862E-007
2.8189429E+002	2.0280373E+002	1.8545580E+001	2.0364992E+002	-5.2249351E+000	4.727739264551201E+001	3.3256524E+000	1.5969097E-003	3.0443419E+001	2.5246769E-001	1.000000000000000E+000	11	1.3397489E-001	6.5786863E-004	6.356292232780551E-005	-7.8141107E-005	4.8899841E-003	4.4716927E-004	4.9103876E-003	5.2249351E+000	5.244152932104486E-007
2.5104436E+002	2.0398474E+002	1.7798206E+001	2.0475974E+002	-4.9865794E+000	4.803392825482297E+001	3.3256621E+000	1.5689618E-003	3.5619961E+001	2.6912668E-001	1.000000000000000E+000	11	1.3397402E-001	6.5429864E-004	6.322243525532839E-005	-1.5830847E-004	4.8652878E-003	4.2450923E-004	4.8837727E-003	4.9865794E+000	-3.404870724771185E-007
2.2392513E+002	2.0503752E+002	1.7129997E+001	2.0575185E+002	-4.7757235E+000	4.879671615773987E+001	3.3256543E+000	1.5952324E-003	4.1491585E+001	2.8759885E-001	1.000000000000000E+000	11	1.3396953E-001	6.5112190E-004	6.293856170738945E-005	-3.1864320E-004	4.8433500E-003	4.0464092E-004	4.8602237E-003	4.7757235E+000	-2.838735479389375E-007
1.9955299E+002	2.0602417E+002	1.6526628E+001	2.0668596E+002	-4.5862718E+000	4.955621438045637E+001	3.3256574E+000	1.5758558E-003	4.8258919E+001	3.0854902E-001	1.000000000000000E+000	11	1.3396740E-001	6.4816885E-004	6.358946444539187E-005	-1.5830847E-004	4.8227664E-003	3.8686756E-004	4.8382580E-003	4.5862718E+000	6.509027380024221E-007
1.7778128E+002	2.0694722E+002	1.5995046E+001	2.0756444E+002	-4.4196301E+000	5.032427004360943E+001	3.3256526E+000	1.5629996E-003	5.5969139E+001	3.3236378E-001	1.000000000000000E+000	11	1.3396296E-001	6.4540422E-004	6.414869396412177E-005	-1.5830847E-004	4.8034550E-003	3.7126121E-004	4.8177810E-003	4.4196301E+000	5.592295187299012E-007
1.5842838E+002	2.0779025E+002	1.5551960E+001	2.0837143E+002	-4.2802944E+000	5.109074890670308E+001	3.3256564E+000	1.6125595E-003	6.4595467E+001	3.5982883E-001	1.000000000000000E+000	11	1.3395596E-001	6.4287102E-004	6.432112080435076E-005	-2.3847583E-004	4.7857370E-003	3.5818617E-004	4.7991225E-003	4.2802944E+000	1.724268402289854E-007
1.4131134E+002	2.0860858E+002	1.5214702E+001	2.0916269E+002	-4.1714358E+000	5.184288998242118E+001	3.3256590E+000	1.5765992E-003	7.4025215E+001	3.9168608E-001	1.000000000000000E+000	11	1.3395943E-001	6.4045563E-004	6.427891292750953E-005	-3.9881055E-004	4.7683017E-003	3.4777229E-004	4.7809673E-003	4.1714358E+000	-4.220787684122609E-008
1.2584569E+002	2.0939760E+002	1.4952737E+001	2.0993080E+002	-4.0844636E+000	5.259840972491656E+001	3.3256521E+000	1.5158585E-003	8.4578720E+001	4.2909172E-001	1.000000000000000E+000	11	1.3395691E-001	6.3810032E-004	6.515211912314448E-005	-2.3847583E-004	4.7513754E-003	3.3928786E-004	4.7634742E-003	4.0844636E+000	8.732061956349512E-007
1.1218996E+002	2.1016782E+002	1.4757198E+001	2.1068527E+002	-4.0165033E+000	5.334385376036516E+001	3.3256538E+000	1.5622524E-003	9.6130730E+001	4.7163031E-001	1.000000000000000E+000	11	1.3395713E-001	6.3581631E-004	6.621010366747820E-005	-7.8141107E-005	4.7347588E-003	3.3245704E-004	4.7464161E-003	4.0165033E+000	1.057984544333715E-006
1.0003201E+002	2.1089799E+002	1.4659622E+001	2.1140688E+002	-3.9762616E+000	5.410367003647843E+001	3.3256538E+000	1.4981577E-003	1.0853214E+002	5.2187407E-001	1.000000000000000E+000	11	1.3395095E-001	6.3361682E-004	6.658724036092503E-005	-3.9881055E-004	4.7188289E-003	3.2800809E-004	4.7302153E-003	3.9762616E+000	3.771366934468312E-007
8.9115974E+001	2.1165306E+002	1.4636585E+001	2.1215854E+002	-3.9559155E+000	5.487076449957385E+001	3.3256547E+000	1.5652329E-003	1.2201825E+002	5.8074206E-001	1.000000000000000E+000	11	1.3395527E-001	6.3139229E-004	6.644204930782669E-005	-2.3847583E-004	4.7022258E-003	3.2517620E-004	4.7134561E-003	3.9559155E+000	-1.451910530983426E-007
7.9415527E+001	2.1242139E+002	1.4695589E+001	2.1292911E+002	-3.9574914E+000	5.563525016253698E+001	3.3256605E+000	1.5808839E-003	1.3637279E+002	6.4957851E-001	1.000000000000000E+000	11	1.3395813E-001	6.2912080E-004	6.739010044661416E-005	-9.5998211E-004	4.6852008E-003	3.2412831E-004	4.6963990E-003	3.9574914E+000	9.480511387874779E-007
7.0838745E+001	2.1317392E+002	1.4837507E+001	2.1368967E+002	-3.9815269E+000	5.638636881150887E+001	3.3256586E+000	1.5357934E-003	1.5142178E+002	7.3003417E-001	1.000000000000000E+000	11	1.3395378E-001	6.2686129E-004	6.735478180504974E-005	-7.8141107E-005	4.6683890E-003	3.2493306E-004	4.6796836E-003	3.9815269E+000	-3.531864156442344E-008
6.3082302E+001	2.1396306E+002	1.5032337E+001	2.1449046E+002	-4.0188084E+000	5.716684580862056E+001	3.3256662E+000	1.5786468E-003	1.6783636E+002	8.2437181E-001	1.000000000000000E+000	11	1.3395274E-001	6.2451605E-004	6.769479792966134E-005	-3.1864320E-004	4.6507479E-003	3.2674617E-004	4.6622120E-003	4.0188084E+000	3.400161246116016E-007
5.6241817E+001	2.1473961E+002	1.5324629E+001	2.1528572E+002	-4.0819230E+000	5.791133173726848E+001	3.3256595E+000	1.5961605E-003	1.8465915E+002	9.3566483E-001	1.000000000000000E+000	11	1.3395405E-001	6.2221522E-004	6.760646382825710E-005	-7.8141107E-005	4.6332069E-003	3.3064315E-004	4.6449900E-003	4.0819230E+000	-8.833410140424690E-008
5.0144413E+001	2.1558154E+002	1.5670600E+001	2.1615034E+002	-4.1575117E+000	5.866817657326465E+001	3.3256495E+000	1.4920066E-003	2.0254054E+002	1.0645629E+000	1.000000000000000E+000	11	1.3395497E-001	6.1973056E-004	6.754630944347283E-005	-1.5830847E-004	4.6142354E-003	3.3540826E-004	4.6264096E-003	4.1575117E+000	-6.015438478426313E-008
4.4671219E+001	2.1643620E+002	1.6118944E+001	2.1703560E+002	-4.2592025E+000	5.943224487619591E+001	3.3256543E+000	1.5978374E-003	2.2103229E+002	1.2191776E+000	1.000000000000000E+000	11	1.3395008E-001	6.1718025E-004	6.786585398059146E-005	-2.3847583E-004	4.5948145E-003	3.4219577E-004	4.6075392E-003	4.2592025E+000	3.195445371186246E-007
3.9808922E+001	2.1732182E+002	1.6633755E+001	2.1795746E+002	-4.3768702E+000	6.019471603244892E+001	3.3256619E+000	1.6121843E-003	2.4035292E+002	1.3998662E+000	1.000000000000000E+000	11	1.3395239E-001	6.1458047E-004	6.878094567982164E-005	-2.3847583E-004	4.5746709E-003	3.5014411E-004	4.5880512E-003	4.3768702E+000	9.150916992301867E-007
3.5465305E+001	2.1828157E+002	1.7208164E+001	2.1895882E+002	-4.5075736E+000	6.094515038802638E+001	3.3256574E+000	1.5639268E-003	2.6078458E+002	1.6107424E+000	1.000000000000000E+000	11	1.3395016E-001	6.1175961E-004	6.843787849323619E-005	-1.5830847E-004	4.5529427E-003	3.5892994E-004	4.5670690E-003	4.5075736E+000	-3.430671865854577E-007
3.1629551E+001	2.1925531E+002	1.7861507E+001	2.1998164E+002	-4.6572833E+000	6.166945186242810E+001	3.3256509E+000	1.6019364E-003	2.8171436E+002	1.8572584E+000	1.000000000000000E+000	11	1.3395090E-001	6.0891855E-004	6.804068066994699E-005	-3.1864320E-004	4.5308243E-003	3.6910101E-004	4.5458339E-003	4.6572833E+000	-3.971978232891927E-007
2.8170074E+001	2.2030589E+002	1.8561144E+001	2.2108641E+002	-4.8158932E+000	6.247476576740155E+001	3.3256583E+000	1.6075257E-003	3.0438791E+002	2.1454222E+000	1.000000000000000E+000	11	1.3394770E-001	6.0586131E-004	6.838112279153534E-005	-7.8141107E-005	4.5071500E-003	3.7973505E-004	4.5231185E-003	4.8158932E+000	3.404421215883499E-007
2.5104435E+001	2.2141992E+002	1.9365467E+001	2.2226517E+002	-4.9983912E+000	6.323092524331878E+001	3.3256640E+000	1.5929929E-003	3.2737213E+002	2.4851630E+000	1.000000000000000E+000	11	1.3395348E-001	6.0267420E-004	6.897019619472080E-005	-1.5830847E-004	4.4820211E-003	3.9199920E-004	4.4991304E-003	4.9983912E+000	5.890734031854572E-007
2.2385387E+001	2.2257379E+002	2.0206572E+001	2.2348915E+002	-5.1874304E+000	6.391742100924603E+001	3.3256454E+000	1.4444947E-003	3.5185434E+002	2.8763072E+000	1.000000000000000E+000	11	1.3395219E-001	5.9936772E-004	6.955037813798319E-005	-5.5914529E-004	4.4561634E-003	4.0455698E-004	4.4744899E-003	5.1874304E+000	5.801819432623882E-007
1.9955299E+001	2.2379742E+002	2.1129187E+001	2.2479263E+002	-5.3934283E+000	6.467822507201345E+001	3.3256557E+000	1.5441768E-003	3.7746710E+002	3.3348823E+000	1.000000000000000E+000	11	1.3394940E-001	5.9587986E-004	7.075841673860082E-005	-4.7897792E-004	4.4288496E-003	4.1813703E-004	4.4485442E-003	5.3934283E+000	1.208038600617636E-006
1.7796129E+001	2.2506165E+002	2.2105658E+001	2.2614465E+002	-5.6096244E+000	6.552254665878718E+001	3.3256330E+000	1.5456686E-003	4.0456763E+002	3.8656754E+000	1.000000000000000E+000	11	1.3395004E-001	5.9232017E-004	7.112867168512094E-005	-3.9881055E-004	4.4007716E-003	4.3224578E-004	4.4219485E-003	5.6096244E+000	3.702549465201108E-007
1.5857576E+001	2.2642146E+002	2.3178938E+001	2.2760480E+002	-5.8450508E+000	6.624493765312945E+001	3.3256531E+000	1.7193188E-003	4.3300189E+002	4.4906998E+000	1.000000000000000E+000	11	1.3395281E-001	5.8853248E-004	6.885092944650913E-005	-2.3847583E-004	4.3707378E-003	4.4743574E-004	4.3935804E-003	5.8450508E+000	-2.277742238611805E-006
1.4118974E+001	2.2788303E+002	2.4316338E+001	2.2917670E+002	-6.0907197E+000	6.704725494454033E+001	3.3256693E+000	1.5490213E-003	4.6357376E+002	5.2188435E+000	1.000000000000000E+000	11	1.3394964E-001	5.8448192E-004	7.017582735092381E-005	2.0262523E-006	4.3388144E-003	4.6297474E-004	4.3634456E-003	6.0907197E+000	1.324897904414683E-006
1.2600808E+001	2.2939481E+002	2.5495779E+001	2.3080730E+002	-6.3420343E+000	6.793786586687202E+001	3.3256433E+000	1.5369115E-003	4.9539706E+002	6.0449257E+000	1.000000000000000E+000	11	1.3394685E-001	5.8034062E-004	7.241049304387747E-005	2.0262523E-006	4.3061040E-003	4.7859619E-004	4.3326188E-003	6.3420343E+000	2.234665692953661E-006
1.1224856E+001	2.3105310E+002	2.6780609E+001	2.3259995E+002	-6.6114650E+000	6.862189963270794E+001	3.3256431E+000	1.6984509E-003	5.2944263E+002	7.0184393E+000	1.000000000000000E+000	11	1.3395236E-001	5.7589164E-004	6.910636590376291E-005	-3.9881055E-004	4.2706360E-003	4.9499550E-004	4.2992271E-003	6.6114650E+000	-3.304127140114565E-006
1.0003201E+001	2.3276175E+002	2.8085875E+001	2.3445010E+002	-6.8802533E+000	6.938270649552578E+001	3.3256419E+000	1.4299613E-003	5.6649127E+002	8.1295824E+000	1.000000000000000E+000	11	1.3393834E-001	5.7128718E-004	7.093477936757820E-005	-2.3847583E-004	4.2345840E-003	5.1096024E-004	4.2653000E-003	6.8802533E+000	1.828413463815292E-006
8.9183798E+000	2.3456097E+002	2.9522636E+001	2.3641159E+002	-7.1737180E+000	7.022701866892749E+001	3.3256280E+000	1.4641517E-003	6.0447595E+002	9.4265289E+000	1.000000000000000E+000	11	1.3394943E-001	5.6659419E-004	7.179656927681167E-005	-5.5914529E-004	4.1967998E-003	5.2822341E-004	4.2299111E-003	7.1737180E+000	8.617899092334724E-007
7.9395342E+000	2.3647729E+002	3.1012295E+001	2.3850215E+002	-7.4712920E+000	7.116571172687691E+001	3.3256342E+000	1.5208874E-003	6.4638495E+002	1.0928849E+001	1.000000000000000E+000	11	1.3394649E-001	5.6161545E-004	7.206496843592524E-005	-4.7897792E-004	4.1572377E-003	5.4519175E-004	4.1928343E-003	7.4712920E+000	2.683991591135633E-007
7.0765405E+000	2.3848222E+002	3.2577843E+001	2.4069708E+002	-7.7787366E+000	7.172404428670416E+001	3.3256197E+000	1.3925110E-003	6.9036194E+002	1.2646775E+001	1.000000000000000E+000	11	1.3394701E-001	5.5649620E-004	7.309374631027499E-005	2.0262523E-006	4.1163699E-003	5.6231627E-004	4.1545997E-003	7.7787366E+000	1.028777874349749E-006
6.3105822E+000	2.4062894E+002	3.4130241E+001	2.4303735E+002	-8.0728502E+000	7.234419284950127E+001	3.3256071E+000	1.8847720E-003	7.3894366E+002	1.4572833E+001	1.000000000000000E+000	11	1.3394050E-001	5.5111077E-004	7.551084475233842E-005	-2.3847583E-004	4.0738196E-003	5.7782099E-004	4.1145938E-003	8.0728502E+000	2.417098442063434E-006
5.6205034E+000	2.4283417E+002	3.5834110E+001	2.4546388E+002	-8.3943386E+000	7.303065242879529E+001	3.3256447E+000	2.4530510E-003	7.9022058E+002	1.6840940E+001	1.000000000000000E+000	11	1.3394505E-001	5.4568128E-004	7.706543626175577E-005	-1.5830847E-004	4.0302742E-003	5.9473224E-004	4.0739193E-003	8.3943386E+000	1.554591509417353E-006
5.0144415E+000	2.4502684E+002	3.7608864E+001	2.4789630E+002	-8.7261572E+000	7.378820241140784E+001	3.3256469E+000	2.9296607E-003	8.4393182E+002	1.9424404E+001	1.000000000000000E+000	11	1.3395004E-001	5.4034707E-004	7.362375885476205E-005	-4.7897792E-004	3.9872508E-003	6.1199820E-004	4.0339450E-003	8.7261572E+000	-3.441677406993722E-006
4.4693937E+000	2.4758928E+002	3.9575607E+001	2.5073228E+002	-9.0815506E+000	7.462950866468600E+001	3.3256319E+000	1.8968818E-003	8.9979565E+002	2.2417057E+001	1.000000000000000E+000	11	1.3394450E-001	5.3421321E-004	6.780144531542344E-005	-3.1864320E-004	3.9383229E-003	6.2951649E-004	3.9883177E-003	9.0815506E+000	-5.822313539338616E-006
3.9778514E+000	2.5015649E+002	4.1450546E+001	2.5356738E+002	-9.4083385E+000	7.556616318915621E+001	3.3256352E+000	1.0581581E-003	9.6525336E+002	2.5793783E+001	1.000000000000000E+000	11	1.3395318E-001	5.2827451E-004	7.284956062149245E-005	-4.7897792E-004	3.8906755E-003	6.4467895E-004	3.9437250E-003	9.4083385E+000	5.048115306069011E-006
3.5511365E+000	2.5290674E+002	4.3571999E+001	2.5663269E+002	-9.7752323E+000	7.660742953195586E+001	3.3256464E+000	1.6267169E-003	1.0285970E+003	2.9650791E+001	1.000000000000000E+000	11	1.3394263E-001	5.2192353E-004	8.095751988153966E-005	-7.8141107E-005	3.8400462E-003	6.6158175E-004	3.8966197E-003	9.7752323E+000	8.107959260047218E-006
3.1603966E+000	2.5575313E+002	4.5659996E+001	2.5979703E+002	-1.0122457E+001	7.776823380045244E+001	3.3256478E+000	2.1112442E-003	1.1029166E+003	3.4067955E+001	1.000000000000000E+000	11	1.3394906E-001	5.1559118E-004	7.042984484119976E-005	-3.9881055E-004	3.7892442E-003	6.7649956E-004	3.8491588E-003	1.0122457E+001	-1.052767504033990E-005
2.8183618E+000	2.5884048E+002	4.7875061E+001	2.6323074E+002	-1.0478986E+001	7.906262634196719E+001	3.3256516E+000	1.5241312E-003	1.1795437E+003	3.9017506E+001	1.000000000000000E+000	11	1.3395047E-001	5.0887093E-004	7.254428369648303E-005	-7.1947998E-004	3.7355884E-003	6.9093332E-004	3.7989484E-003	1.0478986E+001	2.114438855283264E-006
2.5136740E+000	2.6197046E+002	5.0279701E+001	2.6675189E+002	-1.0864595E+001	8.050673859722156E+001	3.3256497E+000	1.5028274E-003	1.2592689E+003	4.4739265E+001	1.000000000000000E+000	11	1.3394947E-001	5.0215004E-004	8.448829497905011E-005	-3.1864320E-004	3.6816061E-003	7.0660654E-004	3.7488020E-003	1.0864595E+001	1.194401128256708E-005
2.2398219E+000	2.6525763E+002	5.2664394E+001	2.7043512E+002	-1.1229506E+001	8.261635901735281E+001	3.3256538E+000	5.3850497E-004	1.3492410E+003	5.1167896E+001	1.000000000000000E+000	12	1.3394955E-001	4.9531122E-004	7.065242913628632E-005	-4.7897792E-004	3.6269512E-003	7.2009687E-004	3.6977446E-003	1.1229506E+001	-1.383586584276378E-005
1.9970604E+000	2.6876788E+002	5.5210800E+001	2.7438004E+002	-1.1608320E+001	8.441962499641159E+001	3.3256514E+000	5.5957840E-005	1.4434603E+003	5.8445076E+001	1.000000000000000E+000	12	1.3394877E-001	4.8818704E-004	7.397770612754175E-005	-1.5830847E-004	3.5700339E-003	7.3336303E-004	3.6445800E-003	1.1608320E+001	3.325276991255426E-006
1.7796129E+000	2.7243042E+002	5.7926315E+001	2.7852072E+002	-1.2003912E+001	8.643793311892659E+001	3.3256559E+000	2.3399718E-004	1.5438982E+003	6.6781395E+001	1.000000000000000E+000	12	1.3395058E-001	4.8093576E-004	8.410127710591162E-005	2.4252833E-004	3.5118873E-003	7.4672530E-004	3.5903971E-003	1.2003912E+001	1.012357097836988E-005
1.5846854E+000	2.7621609E+002	6.0803032E+001	2.8282916E+002	-1.2414441E+001	8.869710866620881E+001	3.3256557E+000	3.9418152E-004	1.6517787E+003	7.6340317E+001	1.000000000000000E+000	12	1.3394812E-001	4.7360081E-004	6.279645839557351E-005	-2.3847583E-004	3.4530319E-003	7.6011074E-004	3.5357033E-003	1.2414441E+001	-2.130481871033812E-005
1.4122382E+000	2.8017584E+002	6.3722172E+001	2.8733084E+002	-1.2813181E+001	9.122613353296765E+001	3.3256578E+000	-2.3378672E-004	1.7685673E+003	8.6983772E+001	1.000000000000000E+000	12	1.3394751E-001	4.6617867E-004	9.066013384120379E-005	-3.1864320E-004	3.3936433E-003	7.7183789E-004	3.4803087E-003	1.2813181E+001	2.786367544563028E-005
1.2596743E+000	2.8437646E+002	6.6726646E+001	2.9210001E+002	-1.3205109E+001	9.405389260067022E+001	3.3256581E+000	5.8828999E-004	1.8934880E+003	9.8809341E+001	1.000000000000000E+000	12	1.3394696E-001	4.5856540E-004	6.240162636714174E-005	-7.1947998E-004	3.3329630E-003	7.8205293E-004	3.4234850E-003	1.3205109E+001	-2.825850747406205E-005
1.1224856E+000	2.8886157E+002	6.9946198E+001	2.9720947E+002	-1.3611847E+001	9.722109341775649E+001	3.3256571E+000	-2.4559337E-004	2.0271002E+003	1.1227373E+002	1.000000000000000E+000	12	1.3394949E-001	4.5069051E-004	8.662535419395661E-005	-7.8141107E-005	3.2701257E-003	7.9184247E-004	3.3646303E-003	1.3611847E+001	2.422372782681488E-005
1.0000638E+000	2.9356964E+002	7.3339409E+001	3.0259180E+002	-1.4026507E+001	1.007702398796391E+002	3.3256612E+000	5.1430869E-004	2.1699766E+003	1.2747221E+002	1.000000000000000E+000	12	1.3394803E-001	4.4266906E-004	7.081412911821624E-005	2.0262523E-006	3.2062458E-003	8.0098264E-004	3.3047823E-003	1.4026507E+001	-1.581122507574037E-005