EC-Lab ASCII FILE
Nb header lines : 60                          

Potentio Electrochemical Impedance Spectroscopy

Run on channel : 10 (SN 41749)
User : 
CE vs. WE compliance from -10 V to 10 V
Electrode connection : standard
Ewe ctrl range : min = -5.00 V, max = 5.00 V
Acquisition started on : 12/03/2020 16:53:05
Technique started on : 12/03/2020 16:53:07
Saved on :
	File : DE_206_10_30.mpr
	Directory : P:\Chemistry\Data\VMP3\Kyler\DOE\DE_206\
	Host : 10.0.4.64
Device : VMP3 (SN 1432)
Address : USB
EC-Lab for windows v11.33 (software)
Internet server v11.32 (firmware)
Command interpretor v11.33 (firmware)
Electrode material : 
Initial state : 
Electrolyte : 
Comments : 
Electrode surface area : 0.001 cm²
Characteristic mass : 0.001 g
Equivalent Weight : 0.000 g/eq.
Density : 0.000 g/cm3
Record Analogic IN 1
Cycle Definition : Charge/Discharge alternance
Mode                Single sine         
E (V)               0.0000              
vs.                 Eoc                 
tE (h:m:s)          0:00:0.0000         
record              0                   
dI                  1.000               
unit dI             mA                  
dt (s)              0.000               
fi                  1.000               
unit fi             MHz                 
ff                  1.000               
unit ff             Hz                  
Nd                  20                  
Points              per decade          
spacing             Logarithmic         
Va (mV)             128.0               
pw                  0.50                
Na                  3                   
corr                0                   
E range min (V)     -5.000              
E range max (V)     5.000               
I Range             Auto                
Bandwidth           5                   
nc cycles           0                   
goto Ns'            0                   
nr cycles           0                   
inc. cycle          1                   

freq/Hz	Re(Z)/Ohm	-Im(Z)/Ohm	|Z|/Ohm	Phase(Z)/deg	time/s	<Ewe>/V	<I>/mA	Cs/µF	Cp/µF	cycle number	I Range	|Ewe|/V	|I|/A	(Q-Qo)/mA.h	Analog IN 1/V	Re(Y)/Ohm-1	Im(Y)/Ohm-1	|Y|/Ohm-1	Phase(Y)/deg	dq/mA.h	
1.0000186E+006	5.6088787E+001	-8.4631042E+000	5.6723682E+001	8.5804977E+000	2.621487271127990E+000	3.3049724E+000	1.5969797E-003	-1.8805392E-002	-4.1861320E-004	1.000000000000000E+000	10	1.3740471E-004	2.4223518E-006	-1.181655878231039E-006	4.2513400E-004	1.7432000E-002	-2.6302733E-003	1.7629322E-002	-8.5804977E+000	-1.181655878231039E-006
8.9124669E+005	8.7016426E+001	3.5529213E+001	9.3990334E+001	-2.2210423E+001	3.520477020501858E+000	3.3044038E+000	8.0885366E-004	5.0261635E-003	7.1819342E-004	1.000000000000000E+000	11	4.4006735E-004	4.6820492E-006	-9.778759089737529E-007	5.0530297E-004	9.8499684E-003	4.0217880E-003	1.0639392E-002	2.2210423E+001	2.037799692572864E-007
7.9433269E+005	9.2954094E+001	3.4782242E+001	9.9248520E+001	-2.0515211E+001	4.115492542128777E+000	3.3040948E+000	1.7951919E-004	5.7604993E-003	7.0750120E-004	1.000000000000000E+000	11	1.4280166E-003	1.4388291E-005	-1.003620933383799E-006	5.0530297E-004	9.4367070E-003	3.5310960E-003	1.0075717E-002	2.0515211E+001	-2.574502441004577E-008
7.0794981E+005	9.7092949E+001	3.4114048E+001	1.0291166E+002	-1.9359158E+001	4.711483743769350E+000	3.3039117E+000	-2.3755172E-004	6.5899845E-003	7.2413869E-004	1.000000000000000E+000	11	2.9736280E-003	2.8894958E-005	-8.993883497185177E-007	8.2597876E-004	9.1676610E-003	3.2210995E-003	9.7170724E-003	1.9359158E+001	1.042325836652810E-007
6.3095681E+005	1.0098090E+002	3.3556046E+001	1.0641029E+002	-1.8381695E+001	5.307485105382511E+000	3.3038056E+000	-2.8097306E-004	7.5170896E-003	7.4752216E-004	1.000000000000000E+000	11	5.1885694E-003	4.8760037E-005	-7.018918632432663E-007	5.8547192E-004	8.9180926E-003	2.9634906E-003	9.3975877E-003	1.8381695E+001	1.974964864752514E-007
5.6234225E+005	1.0469972E+002	3.3294544E+001	1.0986610E+002	-1.7640680E+001	5.903489667020040E+000	3.3037467E+000	-2.7519552E-004	8.5005369E-003	7.8066572E-004	1.000000000000000E+000	11	8.1712985E-003	7.4375072E-005	-7.794607689967152E-007	9.8631659E-004	8.6739743E-003	2.7583267E-003	9.1019887E-003	1.7640680E+001	-7.756890575344891E-008
5.0120619E+005	1.0829610E+002	3.2839752E+001	1.1316578E+002	-1.6869423E+001	6.499494362011319E+000	3.3036897E+000	-3.5439627E-004	9.6694957E-003	8.1427925E-004	1.000000000000000E+000	11	1.2000668E-002	1.0604502E-004	-8.000060644766967E-007	4.2513400E-004	8.4563419E-003	2.5643045E-003	8.8365935E-003	1.6869423E+001	-2.054529547998153E-008
4.4668572E+005	1.1154086E+002	3.2236473E+001	1.1610578E+002	-1.6119848E+001	7.095489777013427E+000	3.3036721E+000	-3.1805571E-004	1.1052755E-002	8.5203588E-004	1.000000000000000E+000	11	1.6668577E-002	1.4356371E-004	-8.092491797473890E-007	3.4496505E-004	8.2742050E-003	2.3913321E-003	8.6128358E-003	1.6119848E+001	-9.243115270692214E-009
3.9810347E+005	1.1462856E+002	3.1612059E+001	1.1890765E+002	-1.5417695E+001	7.690496045252075E+000	3.3036761E+000	-1.9207675E-004	1.2646531E-002	8.9383498E-004	1.000000000000000E+000	11	2.2238193E-002	1.8702071E-004	-8.446208447502512E-007	5.0530297E-004	8.1072440E-003	2.2358010E-003	8.4098876E-003	1.5417695E+001	-3.537166500286227E-008
3.5480997E+005	1.1739870E+002	3.0802166E+001	1.2137228E+002	-1.4701458E+001	8.285482553503243E+000	3.3036451E+000	-3.3258996E-004	1.4562738E-002	9.3792169E-004	1.000000000000000E+000	11	2.8691260E-002	2.3639055E-004	-1.059817733918155E-006	9.0614770E-004	7.9693757E-003	2.0909433E-003	8.2391137E-003	1.4701458E+001	-2.151968891679038E-007
3.1622997E+005	1.2011355E+002	2.9967123E+001	1.2379536E+002	-1.4008736E+001	8.881487301812740E+000	3.3036089E+000	-3.4637770E-004	1.6794693E-002	9.8413206E-004	1.000000000000000E+000	11	3.6172122E-002	2.9219285E-004	-1.533396194308605E-006	6.6564087E-004	7.8376019E-003	1.9554030E-003	8.0778468E-003	1.4008736E+001	-4.735784603904500E-007
2.8183453E+005	1.2257873E+002	2.9060656E+001	1.2597645E+002	-1.3337300E+001	9.476492876739940E+000	3.3035674E+000	-5.4689770E-004	1.9432135E-002	1.0340763E-003	1.000000000000000E+000	11	4.4638958E-002	3.5434368E-004	-1.966561174118801E-006	2.6479611E-004	7.7238958E-003	1.8311617E-003	7.9379920E-003	1.3337300E+001	-4.331649798101960E-007
2.5118764E+005	1.2490918E+002	2.8099949E+001	1.2803090E+002	-1.2678368E+001	1.007249583836528E+001	3.3035374E+000	-5.3254765E-004	2.2548432E-002	1.0861700E-003	1.000000000000000E+000	11	5.4186393E-002	4.2322904E-004	-1.498938468121600E-006	9.0614770E-004	7.6201721E-003	1.7142571E-003	7.8106145E-003	1.2678368E+001	4.676227059972007E-007
2.2387173E+005	1.2710130E+002	2.7098495E+001	1.2995795E+002	-1.2035483E+001	1.066748317333986E+001	3.3034835E+000	-7.4909610E-004	2.6234673E-002	1.1406709E-003	1.000000000000000E+000	11	6.4799652E-002	4.9862015E-004	-1.065733617658326E-006	3.4496505E-004	7.5256545E-003	1.6044992E-003	7.6947967E-003	1.2035483E+001	4.332048504632742E-007
1.9954350E+005	1.2910570E+002	2.6119785E+001	1.3172139E+002	-1.1437314E+001	1.126448445502319E+001	3.3035038E+000	-4.2632202E-004	3.0536059E-002	1.2007139E-003	1.000000000000000E+000	11	7.6427571E-002	5.8022141E-004	-9.016121823612290E-007	4.2513400E-004	7.4410252E-003	1.5054176E-003	7.5917812E-003	1.1437314E+001	1.641214352970970E-007
1.7783180E+005	1.3101993E+002	2.5116774E+001	1.3340567E+002	-1.0852054E+001	1.185949413661729E+001	3.3035030E+000	-4.0246081E-004	3.5632547E-002	1.2630658E-003	1.000000000000000E+000	11	8.9095004E-002	6.6785020E-004	-7.616269318079706E-007	1.8462716E-004	7.3618805E-003	1.4112868E-003	7.4959332E-003	1.0852054E+001	1.399852505532584E-007
1.5848613E+005	1.3281972E+002	2.4157751E+001	1.3499879E+002	-1.0308484E+001	1.245649464495364E+001	3.3034534E+000	-6.9634686E-004	4.1569270E-002	1.3311458E-003	1.000000000000000E+000	11	1.0273206E-001	7.6098507E-004	1.087157673302702E-007	3.4496505E-004	7.2879060E-003	1.3255518E-003	7.4074734E-003	1.0308484E+001	8.703426991382407E-007
1.4125594E+005	1.3450461E+002	2.3208660E+001	1.3649223E+002	-9.7899408E+000	1.291648730679299E+001	3.3034673E+000	-5.5191590E-004	4.8547104E-002	1.4036137E-003	1.000000000000000E+000	11	1.1738589E-001	8.6001883E-004	1.655696047673700E-007	5.0530297E-004	7.2197351E-003	1.2457594E-003	7.3264241E-003	9.7899408E+000	5.685383743709988E-008
1.2590930E+005	1.3608865E+002	2.2292789E+001	1.3790247E+002	-9.3030415E+000	1.337647876868141E+001	3.3034773E+000	-4.8911438E-004	5.6701943E-002	1.4817765E-003	1.000000000000000E+000	11	1.3311854E-001	9.6530939E-004	2.663351667563094E-007	5.8547192E-004	7.1561239E-003	1.1722503E-003	7.2515020E-003	9.3030415E+000	1.007655619889394E-007
1.1220494E+005	1.3760939E+002	2.1393204E+001	1.3926239E+002	-8.8366508E+000	1.397148298358661E+001	3.3034353E+000	-8.0294127E-004	6.6302866E-002	1.5646467E-003	1.000000000000000E+000	11	1.2996303E-001	9.3322416E-004	-1.025073561757583E-006	2.4289257E-005	7.0954575E-003	1.1030829E-003	7.1806898E-003	8.8366508E+000	-1.291408728513893E-006
1.0000371E+005	1.3903078E+002	2.0546661E+001	1.4054082E+002	-8.4066067E+000	1.456649685182492E+001	3.3035004E+000	-2.6809089E-004	7.7457368E-002	1.6555424E-003	1.000000000000000E+000	11	1.2972838E-001	9.2306553E-004	-9.110890564220932E-007	2.6479611E-004	7.0389193E-003	1.0402466E-003	7.1153706E-003	8.4066067E+000	1.139845053354900E-007
8.9129305E+004	1.4036610E+002	1.9713577E+001	1.4174367E+002	-7.9945598E+000	1.516148293341394E+001	3.3035030E+000	-3.5418826E-004	9.0580389E-002	1.7520953E-003	1.000000000000000E+000	11	1.2969732E-001	9.1501320E-004	7.859696192301473E-007	4.2513400E-004	6.9864234E-003	9.8120130E-004	7.0549888E-003	7.9945598E+000	1.697058675652241E-006
7.9433273E+004	1.4162248E+002	1.8927458E+001	1.4288168E+002	-7.6123157E+000	1.575647682839190E+001	3.3034678E+000	-7.3398807E-004	1.0585842E-001	1.8576198E-003	1.000000000000000E+000	11	1.2962461E-001	9.0721640E-004	1.369714406006905E-006	6.6564087E-004	6.9371182E-003	9.2712691E-004	6.9987979E-003	7.6123157E+000	5.837447867767574E-007
7.0794977E+004	1.4280951E+002	1.8188616E+001	1.4396312E+002	-7.2582722E+000	1.635247370999423E+001	3.3035228E+000	-3.2045817E-004	1.2359988E-001	1.9729442E-003	1.000000000000000E+000	11	1.2955464E-001	8.9991553E-004	-2.846660825258974E-007	5.8547192E-004	6.8905614E-003	8.7760109E-004	6.9462233E-003	7.2582722E+000	-1.654380488532802E-006
6.3093828E+004	1.4392538E+002	1.7477936E+001	1.4498274E+002	-6.9239516E+000	1.694848376497976E+001	3.3035343E+000	-2.3995120E-004	1.4432551E-001	2.0974460E-003	1.000000000000000E+000	11	1.2942933E-001	8.9272228E-004	-1.862744266731574E-006	6.6564087E-004	6.8470705E-003	8.3149091E-004	6.8973727E-003	6.9239516E+000	-1.578078184205676E-006
5.6237012E+004	1.4499507E+002	1.6839012E+001	1.4596959E+002	-6.6243744E+000	1.754549632666749E+001	3.3035378E+000	-2.6287299E-004	1.6806655E-001	2.2366073E-003	1.000000000000000E+000	11	1.2931225E-001	8.8588480E-004	-3.121406564173715E-006	5.8547192E-004	6.8050046E-003	7.9029973E-004	6.8507418E-003	6.6243744E+000	-1.258662297442142E-006
5.0122477E+004	1.4599355E+002	1.6224079E+001	1.4689226E+002	-6.3411894E+000	1.800449181513977E+001	3.3035271E+000	-3.7841423E-004	1.9571656E-001	2.3875355E-003	1.000000000000000E+000	11	1.4026771E-001	9.5490203E-004	-3.385480567296327E-006	5.0530297E-004	6.7660594E-003	7.5190369E-004	6.8077105E-003	6.3411894E+000	-2.640740031226114E-007
4.4666715E+004	1.4692152E+002	1.5674725E+001	1.4775531E+002	-6.0897217E+000	1.860049360347330E+001	3.3035438E+000	-2.9902757E-004	2.2731924E-001	2.5582905E-003	1.000000000000000E+000	11	1.3029084E-001	8.8180142E-004	-2.067616512994088E-006	5.0530297E-004	6.7297546E-003	7.1798230E-004	6.7679463E-003	6.0897217E+000	1.317864054302239E-006
3.9814063E+004	1.4783719E+002	1.5176839E+001	1.4861417E+002	-5.8614025E+000	1.906049231861834E+001	3.3035297E+000	-3.2548970E-004	2.6339185E-001	2.7469108E-003	1.000000000000000E+000	11	1.3936552E-001	9.3776739E-004	-1.583592468174175E-006	1.8462716E-004	6.6936542E-003	6.8716484E-004	6.7288335E-003	5.8614025E+000	4.840240448199136E-007
3.5480996E+004	1.4865796E+002	1.4742418E+001	1.4938718E+002	-5.6635079E+000	1.965647845363128E+001	3.3035452E+000	-3.1561276E-004	3.0426753E-001	2.9632372E-003	1.000000000000000E+000	11	1.3005152E-001	8.7056687E-004	-1.730426240549099E-006	2.6479611E-004	6.6613392E-003	6.6060538E-004	6.6940151E-003	5.6635079E+000	-1.468337723749249E-007
3.1621143E+004	1.4948856E+002	1.4379195E+001	1.5017853E+002	-5.4943357E+000	2.011647362212534E+001	3.3035643E+000	-1.5198895E-004	3.5003218E-001	3.2089390E-003	1.000000000000000E+000	11	1.3712347E-001	9.1306976E-004	-1.087181468906541E-006	6.6564087E-004	6.6281492E-003	6.3755683E-004	6.6587417E-003	5.4943357E+000	6.432447716425587E-007
2.8188096E+004	1.5025742E+002	1.4051375E+001	1.5091299E+002	-5.3424973E+000	2.071247759708785E+001	3.3035669E+000	-1.8590757E-004	4.0182370E-001	3.4835332E-003	1.000000000000000E+000	11	1.2957796E-001	8.5862697E-004	-2.163349869332807E-006	8.2597876E-004	6.5975492E-003	6.1697210E-004	6.6263345E-003	5.3424973E+000	-1.076168400426266E-006
2.5116910E+004	1.5101689E+002	1.3798635E+001	1.5164598E+002	-5.2207031E+000	2.117249399228604E+001	3.3035641E+000	-1.8702574E-004	4.5921686E-001	3.8021409E-003	1.000000000000000E+000	11	1.3481215E-001	8.8899257E-004	-2.485886266450204E-006	1.0445821E-004	6.5669501E-003	6.0003187E-004	6.5943059E-003	5.2207031E+000	-3.225363971173972E-007
2.2389027E+004	1.5175928E+002	1.3611012E+001	1.5236842E+002	-5.1250410E+000	2.163249028081191E+001	3.3035796E+000	-2.1181078E-004	5.2226931E-001	4.1675935E-003	1.000000000000000E+000	11	1.3939825E-001	9.1487617E-004	-3.015977342249243E-006	6.6564087E-004	6.5368013E-003	5.8627373E-004	6.5630395E-003	5.1250410E+000	-5.300910757990398E-007
1.9948783E+004	1.5248160E+002	1.3469797E+001	1.5307538E+002	-5.0482450E+000	2.222847900245688E+001	3.3035653E+000	-2.7181979E-004	5.9230131E-001	4.5862119E-003	1.000000000000000E+000	11	1.2950107E-001	8.4599544E-004	-1.239163826074218E-006	6.6564087E-004	6.5073883E-003	5.7484448E-004	6.5327291E-003	5.0482450E+000	1.776813516175025E-006
1.7786895E+004	1.5317628E+002	1.3409825E+001	1.5376215E+002	-5.0032063E+000	2.268849595761276E+001	3.3035457E+000	-3.4189096E-004	6.6726279E-001	5.0750962E-003	1.000000000000000E+000	11	1.3253227E-001	8.6193037E-004	-9.340403511030470E-007	3.4496505E-004	6.4787716E-003	5.6718441E-004	6.5035513E-003	5.0032063E+000	3.051234749711713E-007
1.5847686E+004	1.5388332E+002	1.3404132E+001	1.5446600E+002	-4.9782305E+000	2.314848685948527E+001	3.3035669E+000	-2.3622427E-004	7.4923074E-001	5.6419228E-003	1.000000000000000E+000	11	1.3508487E-001	8.7452814E-004	-1.319094051071766E-006	1.3069925E-003	6.4494954E-003	5.6178856E-004	6.4739166E-003	4.9782305E+000	-3.850536999687191E-007
1.4121879E+004	1.5459998E+002	1.3466017E+001	1.5518533E+002	-4.9780316E+000	2.360748554792372E+001	3.3035655E+000	-2.4833693E-004	8.3692873E-001	6.3018119E-003	1.000000000000000E+000	11	1.3719904E-001	8.8409800E-004	-1.877620216370108E-006	5.8547192E-004	6.4196019E-003	5.5916223E-004	6.4439080E-003	4.9780316E+000	-5.585261652983415E-007
1.2590932E+004	1.5532683E+002	1.3598198E+001	1.5592093E+002	-5.0032439E+000	2.406648332971963E+001	3.3035610E+000	-2.7796850E-004	9.2956746E-001	7.0702503E-003	1.000000000000000E+000	11	1.3892767E-001	8.9101359E-004	-1.728061597791061E-006	9.8631659E-004	6.3890703E-003	5.5933575E-004	6.4135073E-003	5.0032439E+000	1.495586185790470E-007
1.1217711E+004	1.5606976E+002	1.3793975E+001	1.5667816E+002	-5.0508709E+000	2.452649305827799E+001	3.3035655E+000	-1.9839330E-004	1.0285525E+000	7.9723876E-003	1.000000000000000E+000	11	1.4033723E-001	8.9570385E-004	-1.678454769930492E-006	6.6564087E-004	6.3577266E-003	5.6191749E-004	6.3825105E-003	5.0508709E+000	4.960682786056876E-008
1.0002229E+004	1.5681924E+002	1.4050599E+001	1.5744743E+002	-5.1198831E+000	2.512248409990571E+001	3.3035607E+000	-3.0871929E-004	1.1324747E+000	9.0187630E-003	1.000000000000000E+000	11	1.2939206E-001	8.2181115E-004	-1.016624172585176E-006	1.0445821E-004	6.3259853E-003	5.6679198E-004	6.3513261E-003	5.1198831E+000	6.618305973453162E-007
8.9149297E+003	1.5759225E+002	1.4385760E+001	1.5824750E+002	-5.2157722E+000	2.560490721618407E+001	3.3036098E+000	-6.0718808E-006	1.2409931E+000	1.0255606E-002	1.000000000000000E+000	11	1.3022046E-001	8.2289107E-004	-8.137445603060768E-007	6.6564087E-004	6.2930500E-003	5.7445909E-004	6.3192151E-003	5.2157722E+000	2.028796122790988E-007
7.9439976E+003	1.5841374E+002	1.4774487E+001	1.5910123E+002	-5.3282876E+000	2.613099388114642E+001	3.3036103E+000	-1.2310594E-004	1.3560278E+000	1.1693549E-002	1.000000000000000E+000	11	1.3086936E-001	8.2255405E-004	-1.209506628933013E-006	9.0614770E-004	6.2581478E-003	5.8366725E-004	6.2853065E-003	5.3282876E+000	-3.957620686269367E-007
7.0822334E+003	1.5928101E+002	1.5224457E+001	1.6000694E+002	-5.4598799E+000	2.670786417523050E+001	3.3036253E+000	-9.4406460E-005	1.4760739E+000	1.3363310E-002	1.000000000000000E+000	11	1.3138586E-001	8.2112598E-004	-7.259879164420353E-007	1.1466546E-003	6.2213740E-003	5.9465371E-004	6.2497286E-003	5.4598799E+000	4.835187124909782E-007
6.3077344E+003	1.6019859E+002	1.5753297E+001	1.6097128E+002	-5.6161847E+000	2.734255233869771E+001	3.3036132E+000	-2.6306213E-004	1.6016783E+000	1.5339860E-002	1.000000000000000E+000	11	1.3178952E-001	8.1871450E-004	-9.897143098237899E-007	1.3069925E-003	6.1824676E-003	6.0795952E-004	6.2122880E-003	5.6161847E+000	-2.637263933817546E-007
5.6210552E+003	1.6117410E+002	1.6325008E+001	1.6199876E+002	-5.7836523E+000	2.804326946529909E+001	3.3036580E+000	-1.7067476E-005	1.7343982E+000	1.7612956E-002	1.000000000000000E+000	11	1.3210294E-001	8.1545644E-004	-9.738517737245678E-007	6.6564087E-004	6.1414633E-003	6.2205677E-004	6.1728866E-003	5.7836523E+000	1.586253609922205E-008
5.0116035E+003	1.6221133E+002	1.6940655E+001	1.6309354E+002	-5.9621119E+000	2.880367254145676E+001	3.3036504E+000	-5.8812257E-005	1.8746198E+000	2.0225540E-002	1.000000000000000E+000	11	1.3234198E-001	8.1144838E-004	-1.355189347026883E-006	8.2597876E-004	6.0982844E-003	6.3687866E-004	6.1314506E-003	5.9621119E+000	-3.813375733023148E-007
4.4664292E+003	1.6333714E+002	1.7623219E+001	1.6428513E+002	-6.1580911E+000	2.956270609750936E+001	3.3036408E+000	-1.2180128E-004	2.0219688E+000	2.3267429E-002	1.000000000000000E+000	11	1.3252942E-001	8.0670376E-004	-6.206286761945295E-007	5.8547192E-004	6.0518542E-003	6.5296330E-004	6.0869781E-003	6.1580911E+000	7.345606708323532E-007
3.9812742E+003	1.6454492E+002	1.8324982E+001	1.6556218E+002	-6.3547111E+000	3.032270584026992E+001	3.3036463E+000	-8.3784769E-005	2.1814964E+000	2.6725098E-002	1.000000000000000E+000	11	1.3266775E-001	8.0131675E-004	-7.180413398584481E-007	7.4580981E-004	6.0029151E-003	6.6853059E-004	6.0400269E-003	6.3547111E+000	-9.741266366391861E-008
3.5465955E+003	1.6583447E+002	1.9089060E+001	1.6692952E+002	-6.5663667E+000	3.108294336969266E+001	3.3036578E+000	4.5016421E-007	2.3508446E+000	3.0741619E-002	1.000000000000000E+000	11	1.3277201E-001	7.9537771E-004	-3.783676249650954E-007	7.4580981E-004	5.9512546E-003	6.8504369E-004	5.9905523E-003	6.5663667E+000	3.396737148933527E-007
3.1610112E+003	1.6722192E+002	1.9861198E+001	1.6839726E+002	-6.7733750E+000	3.184270431246841E+001	3.3036757E+000	2.7658492E-005	2.5350626E+000	3.5263833E-002	1.000000000000000E+000	11	1.3284764E-001	7.8889425E-004	-1.495306056571685E-007	5.8547192E-004	5.8968915E-003	7.0038269E-004	5.9383386E-003	6.7733750E+000	2.288370193079269E-007
2.8172952E+003	1.6872212E+002	2.0654476E+001	1.6998166E+002	-6.9792590E+000	3.260292600188404E+001	3.3036547E+000	-8.0616890E-005	2.7351024E+000	4.0382929E-002	1.000000000000000E+000	11	1.3289896E-001	7.8184291E-004	-6.041305628880056E-007	5.0530297E-004	5.8393958E-003	7.1484206E-004	5.8829878E-003	6.9792590E+000	-4.545999572308371E-007
2.5108032E+003	1.7031659E+002	2.1461393E+001	1.7166342E+002	-7.1819215E+000	3.336269715800154E+001	3.3036563E+000	4.8903639E-005	2.9535854E+000	4.6164680E-002	1.000000000000000E+000	11	1.3292968E-001	7.7436230E-004	-1.091137826133895E-006	8.2597876E-004	5.7796482E-003	7.2828669E-004	5.8253529E-003	7.1819215E+000	-4.870072632458889E-007
2.2378516E+003	1.7202939E+002	2.2228945E+001	1.7345961E+002	-7.3627329E+000	3.412296455408796E+001	3.3036575E+000	-2.1356082E-005	3.1994109E+000	5.2542530E-002	1.000000000000000E+000	11	1.3295636E-001	7.6649751E-004	-8.484181453321880E-007	8.2597876E-004	5.7174964E-003	7.3879189E-004	5.7650306E-003	7.3627329E+000	2.427196808017066E-007
1.9956389E+003	1.7381685E+002	2.2969929E+001	1.7532802E+002	-7.5280280E+000	3.488268203019106E+001	3.3036623E+000	6.5992617E-006	3.4719906E+000	5.9592992E-002	1.000000000000000E+000	11	1.3296579E-001	7.5838302E-004	-1.084444479329654E-006	8.2597876E-004	5.6544351E-003	7.4723468E-004	5.7035950E-003	7.5280280E+000	-2.360263339974659E-007
1.7782927E+003	1.7574083E+002	2.3669960E+001	1.7732768E+002	-7.6708198E+000	3.564295681295334E+001	3.3036630E+000	-1.8187780E-005	3.7811103E+000	6.7369193E-002	1.000000000000000E+000	11	1.3296473E-001	7.4982503E-004	-4.255974183017517E-007	6.6564087E-004	5.5888132E-003	7.5273903E-004	5.6392774E-003	7.6708198E+000	6.588470610279021E-007
1.5855076E+003	1.7775679E+002	2.4315193E+001	1.7941211E+002	-7.7890973E+000	3.640267911572300E+001	3.3036580E+000	-4.4650911E-005	4.1283269E+000	7.5827375E-002	1.000000000000000E+000	11	1.3296953E-001	7.4114022E-004	-5.234370936830399E-007	2.6479611E-004	5.5223345E-003	7.5539516E-004	5.5737598E-003	7.7890973E+000	-9.783967538128814E-008
1.4118373E+003	1.7987769E+002	2.4896204E+001	1.8159241E+002	-7.8800335E+000	3.716220699177939E+001	3.3036551E+000	-1.2596425E-005	4.5279579E+000	8.5108563E-002	1.000000000000000E+000	11	1.3295577E-001	7.3216594E-004	-1.057955487437236E-006	5.0530297E-004	5.4548387E-003	7.5498404E-004	5.5068382E-003	7.8800335E+000	-5.345183937541959E-007
1.2587914E+003	1.8204881E+002	2.5375475E+001	1.8380882E+002	-7.9352336E+000	3.792192340121255E+001	3.3036532E+000	-4.8751626E-005	4.9825559E+000	9.4961561E-002	1.000000000000000E+000	11	1.3294908E-001	7.2330091E-004	-1.525834200995935E-006	5.8547192E-004	5.3883418E-003	7.5107184E-004	5.4404354E-003	7.9352336E+000	-4.678787135586997E-007
1.1217948E+003	1.8428996E+002	2.5759512E+001	1.8608154E+002	-7.9570832E+000	3.868043090388528E+001	3.3036590E+000	-4.4277615E-005	5.5076847E+000	1.0554501E-001	1.000000000000000E+000	11	1.3293445E-001	7.1438815E-004	-1.046147480104183E-006	9.8631659E-004	5.3222477E-003	7.4392825E-004	5.3739883E-003	7.9570832E+000	4.796867208917522E-007
1.0003201E+003	1.8656798E+002	2.6055954E+001	1.8837866E+002	-7.9504647E+000	3.943970256664034E+001	3.3036435E+000	-9.0310241E-005	6.1062441E+000	1.1682202E-001	1.000000000000000E+000	11	1.3293310E-001	7.0566958E-004	-6.816812489107380E-007	5.0530297E-004	5.2574319E-003	7.3424930E-004	5.3084567E-003	7.9504647E+000	3.644662311934452E-007
8.9142657E+002	1.8887314E+002	2.6210960E+001	1.9068318E+002	-7.9007878E+000	4.019745721589425E+001	3.3036566E+000	-7.6146323E-005	6.8116388E+000	1.2870419E-001	1.000000000000000E+000	11	1.3291740E-001	6.9705886E-004	-7.105051620649950E-007	6.6564087E-004	5.1945201E-003	7.2087202E-004	5.2443012E-003	7.9007878E+000	-2.882391315425695E-008
7.9423773E+002	1.9118091E+002	2.6251152E+001	1.9297478E+002	-7.8184218E+000	4.095693063869840E+001	3.3036604E+000	6.0370735E-006	7.6334567E+000	1.4125925E-001	1.000000000000000E+000	11	1.3290437E-001	6.8871368E-004	-4.173956452028102E-007	7.4580981E-004	5.1338533E-003	7.0493208E-004	5.1820246E-003	7.8184218E+000	2.931095168621848E-007
7.0750946E+002	1.9346066E+002	2.6204338E+001	1.9522729E+002	-7.7137947E+000	4.171843950150651E+001	3.3036528E+000	-1.3717670E-005	8.5844936E+000	1.5466070E-001	1.000000000000000E+000	11	1.3288735E-001	6.8068015E-004	-7.962268733285277E-007	5.0530297E-004	5.0758831E-003	6.8753079E-004	5.1222346E-003	7.7137947E+000	-3.788312281257175E-007
6.3100964E+002	1.9571281E+002	2.6059994E+001	1.9744019E+002	-7.5845623E+000	4.247644545751973E+001	3.3036590E+000	1.0137006E-005	9.6785393E+000	1.6861156E-001	1.000000000000000E+000	11	1.3288096E-001	6.7301880E-004	-1.163973518257384E-006	4.2513400E-004	5.0205137E-003	6.6850276E-004	5.0648251E-003	7.5845623E+000	-3.677466449288558E-007
5.6233929E+002	1.9790662E+002	2.5838552E+001	1.9958623E+002	-7.4384236E+000	4.323190149341826E+001	3.3036559E+000	-8.3042789E-005	1.0953515E+001	1.8358143E-001	1.000000000000000E+000	11	1.3287330E-001	6.6574384E-004	-8.014704156650826E-007	9.8631659E-004	4.9682017E-003	6.4864499E-004	5.0103660E-003	7.4384236E+000	3.625031025923010E-007
5.0144415E+002	2.0004121E+002	2.5533051E+001	2.0166414E+002	-7.2738423E+000	4.398919064932852E+001	3.3036609E+000	-1.7818509E-005	1.2430679E+001	1.9927046E-001	1.000000000000000E+000	11	1.3286701E-001	6.5885292E-004	-3.950660014145089E-007	1.1466546E-003	4.9188337E-003	6.2783482E-004	4.9587400E-003	7.2738423E+000	4.064044142505736E-007
4.4685895E+002	2.0210416E+002	2.5176117E+001	2.0366621E+002	-7.1007576E+000	4.474591537864762E+001	3.3036566E+000	-6.2358587E-005	1.4146889E+001	2.1617250E-001	1.000000000000000E+000	11	1.3285181E-001	6.5230165E-004	-8.298148798300341E-007	6.6564087E-004	4.8723365E-003	6.0694700E-004	4.9099945E-003	7.1007576E+000	-4.347488784155252E-007
3.9808920E+002	2.0407994E+002	2.4760981E+001	2.0557657E+002	-6.9178724E+000	4.550870482823666E+001	3.3036537E+000	-1.3690320E-004	1.6146257E+001	2.3423961E-001	1.000000000000000E+000	11	1.3284990E-001	6.4623076E-004	-1.178074889187378E-006	9.0614770E-004	4.8289541E-003	5.8589608E-004	4.8643677E-003	6.9178724E+000	-3.482600093573436E-007
3.5465955E+002	2.0595253E+002	2.4341011E+001	2.0738594E+002	-6.7403765E+000	4.626794107761816E+001	3.3036556E+000	-1.0466253E-004	1.8436134E+001	2.5397354E-001	1.000000000000000E+000	11	1.3283557E-001	6.4052350E-004	-8.241147663881950E-007	5.8547192E-004	4.7885994E-003	5.6595256E-004	4.8219278E-003	6.7403765E+000	3.539601227991828E-007
3.1631586E+002	2.0777122E+002	2.3915354E+001	2.0914308E+002	-6.5660920E+000	4.702492778023588E+001	3.3036602E+000	-5.2669326E-005	2.1038868E+001	2.7509898E-001	1.000000000000000E+000	11	1.3283353E-001	6.3513231E-004	-1.149102596721302E-006	9.8631659E-004	4.7500525E-003	5.4675125E-004	4.7814157E-003	6.5660920E+000	-3.249878303331066E-007
2.8189429E+002	2.0951788E+002	2.3493019E+001	2.1083089E+002	-6.3977919E+000	4.778041984277661E+001	3.3036516E+000	-9.0873575E-005	2.4032282E+001	2.9840371E-001	1.000000000000000E+000	11	1.3283402E-001	6.3005008E-004	-1.168875357474058E-006	7.4580981E-004	4.7135986E-003	5.2853086E-004	4.7431379E-003	6.3977919E+000	-1.977276075275657E-008
2.5104436E+002	2.1119765E+002	2.3068768E+001	2.1245380E+002	-6.2336102E+000	4.853691158539732E+001	3.3036456E+000	-1.2050595E-004	2.7481806E+001	3.2401496E-001	1.000000000000000E+000	11	1.3283354E-001	6.2523497E-004	-1.895298221421803E-006	5.8547192E-004	4.6790759E-003	5.1108765E-004	4.7069057E-003	6.2336102E+000	-7.264228639477451E-007
2.2392513E+002	2.1279437E+002	2.2717329E+001	2.1400356E+002	-6.0936561E+000	4.929970834163396E+001	3.3036444E+000	-7.0561873E-005	3.1286720E+001	3.5255966E-001	1.000000000000000E+000	11	1.3282391E-001	6.2066218E-004	-2.541474583870796E-006	9.8631659E-004	4.6464168E-003	4.9603841E-004	4.6728197E-003	6.0936561E+000	-6.461763624489928E-007
1.9955299E+002	2.1434102E+002	2.2355234E+001	2.1550366E+002	-5.9542794E+000	5.005920128434082E+001	3.3036487E+000	-1.0988348E-004	3.5676533E+001	3.8391209E-001	1.000000000000000E+000	11	1.3281983E-001	6.1632285E-004	-2.097028111966210E-006	6.6564087E-004	4.6152580E-003	4.8135992E-004	4.6402924E-003	5.9542794E+000	4.444464719045855E-007
1.7778128E+002	2.1584935E+002	2.2044292E+001	2.1697211E+002	-5.8312936E+000	5.082726974747493E+001	3.3036478E+000	-1.2236966E-004	4.0610466E+001	4.1920114E-001	1.000000000000000E+000	11	1.3282043E-001	6.1215437E-004	-2.095427255797808E-006	9.0614770E-004	4.5850379E-003	4.6826139E-004	4.6088872E-003	5.8312936E+000	1.600856168402693E-009
1.5842838E+002	2.1730630E+002	2.1779051E+001	2.1839496E+002	-5.7232332E+000	5.159375122391793E+001	3.3036573E+000	-8.3793464E-005	4.6126259E+001	4.5871285E-001	1.000000000000000E+000	11	1.3281578E-001	6.0814491E-004	-2.144702934228311E-006	5.0530297E-004	4.5560356E-003	4.5661876E-004	4.5788605E-003	5.7232332E+000	-4.927567843050298E-008
1.4131134E+002	2.1871950E+002	2.1573971E+001	2.1978093E+002	-5.6332965E+000	5.234591597964754E+001	3.3036547E+000	-1.1808364E-004	5.2205112E+001	5.0302923E-001	1.000000000000000E+000	11	1.3281599E-001	6.0431077E-004	-2.585140577098678E-006	-1.3604865E-004	4.5280112E-003	4.4663221E-004	4.5499853E-003	5.6332965E+000	-4.404376428703674E-007
1.2584569E+002	2.2012030E+002	2.1394522E+001	2.2115758E+002	-5.5514073E+000	5.310139321550378E+001	3.3036506E+000	-1.6225140E-004	5.9112484E+001	5.5319816E-001	1.000000000000000E+000	11	1.3281378E-001	6.0053915E-004	-2.086471751540861E-006	5.8547192E-004	4.5004552E-003	4.3742030E-004	4.5216628E-003	5.5514073E+000	4.986688255578177E-007
1.1218996E+002	2.2150858E+002	2.1258955E+001	2.2252638E+002	-5.4820867E+000	5.384685170426383E+001	3.3036478E+000	-1.8740835E-004	6.6730484E+001	6.0903895E-001	1.000000000000000E+000	11	1.3281588E-001	5.9685454E-004	-1.445647310465574E-006	1.1466546E-003	4.4732951E-003	4.2931782E-004	4.4938494E-003	5.4820867E+000	6.408244410752863E-007
1.0003201E+002	2.2284676E+002	2.1188377E+001	2.2385179E+002	-5.4313827E+000	5.460666832703282E+001	3.3036478E+000	-2.0809488E-004	7.5090233E+001	6.7275620E-001	1.000000000000000E+000	11	1.3281259E-001	5.9330591E-004	-1.551406944882830E-006	1.0664855E-003	4.4471850E-003	4.2284047E-004	4.4672415E-003	5.4313827E+000	-1.057596344172554E-007
8.9115974E+001	2.2421562E+002	2.1159739E+001	2.2521185E+002	-5.3911662E+000	5.537375055013399E+001	3.3036573E+000	-1.2311577E-004	8.4402298E+001	7.4506193E-001	1.000000000000000E+000	11	1.3281091E-001	5.8971543E-004	-2.121948486169761E-006	5.8547192E-004	4.4206223E-003	4.1718417E-004	4.4402638E-003	5.3911662E+000	-5.705415412869317E-007
7.9415527E+001	2.2553796E+002	2.1189438E+001	2.2653116E+002	-5.3672214E+000	5.613824045305955E+001	3.3036537E+000	-1.6858711E-004	9.4579124E+001	8.2751954E-001	1.000000000000000E+000	11	1.3280869E-001	5.8627117E-004	-1.494534811688936E-006	1.8462716E-004	4.3950495E-003	4.1291778E-004	4.4144038E-003	5.3672214E+000	6.274136744808250E-007
7.0838745E+001	2.2686624E+002	2.1277582E+001	2.2786186E+002	-5.3580461E+000	5.688940224875114E+001	3.3036542E+000	-1.4305626E-004	1.0559103E+002	9.2072147E-001	1.000000000000000E+000	11	1.3280551E-001	5.8283343E-004	-1.873723281940329E-006	6.6564087E-004	4.3694484E-003	4.0980664E-004	4.3886239E-003	5.3580461E+000	-3.791884702513926E-007
6.3082302E+001	2.2820503E+002	2.1404797E+001	2.2920668E+002	-5.3584566E+000	5.766982716585335E+001	3.3036444E+000	-1.9449052E-004	1.1786952E+002	1.0279434E+000	1.000000000000000E+000	11	1.3280144E-001	5.7939603E-004	-1.985099977092533E-006	8.2597876E-004	4.3438086E-003	4.0743331E-004	4.3628747E-003	5.3584566E+000	-1.113766951522039E-007
5.6241817E+001	2.2953770E+002	2.1596487E+001	2.3055144E+002	-5.3749585E+000	5.841334264111356E+001	3.3036525E+000	-1.9188174E-004	1.3103210E+002	1.1497627E+000	1.000000000000000E+000	11	1.3280088E-001	5.7601411E-004	-2.334985933019197E-006	4.2513400E-004	4.3183551E-003	4.0630059E-004	4.3374267E-003	5.3749585E+000	-3.498859559266644E-007
5.0144413E+001	2.3085587E+002	2.1842062E+001	2.3188684E+002	-5.4048600E+000	5.917020059705828E+001	3.3036551E+000	-1.6467345E-004	1.4531282E+002	1.2892555E+000	1.000000000000000E+000	11	1.3280386E-001	5.7270977E-004	-2.552754135524285E-006	7.4580981E-004	4.2932751E-003	4.0620140E-004	4.3124482E-003	5.4048600E+000	-2.177682025050878E-007
4.4671219E+001	2.3219572E+002	2.2138559E+001	2.3324873E+002	-5.4463673E+000	5.993421676670550E+001	3.3036520E+000	-1.5591495E-004	1.6093221E+002	1.4497833E+000	1.000000000000000E+000	11	1.3280195E-001	5.6935765E-004	-2.787411895916901E-006	6.6564087E-004	4.2679138E-003	4.0692161E-004	4.2872685E-003	5.4463673E+000	-2.346577603926156E-007
3.9808922E+001	2.3354306E+002	2.2531128E+001	2.3462740E+002	-5.5105710E+000	6.069673997629434E+001	3.3036535E+000	-1.6523310E-004	1.7744215E+002	1.6363086E+000	1.000000000000000E+000	11	1.3280293E-001	5.6601630E-004	-2.027054282854402E-006	9.8631659E-004	4.2423797E-003	4.0928466E-004	4.2620767E-003	5.5105710E+000	7.603576130624990E-007
3.5465305E+001	2.3492798E+002	2.2942287E+001	2.3604555E+002	-5.5776300E+000	6.144713187855086E+001	3.3036530E+000	-1.6206468E-004	1.9560489E+002	1.8478279E+000	1.000000000000000E+000	11	1.3280502E-001	5.6262454E-004	-3.195168696717398E-006	7.4580981E-004	4.2164125E-003	4.1176088E-004	4.2364704E-003	5.5776300E+000	-1.168114413862996E-006
3.1629551E+001	2.3631091E+002	2.3462093E+001	2.3747278E+002	-5.6700206E+000	6.217144916628604E+001	3.3036547E+000	-2.0958623E-004	2.1446693E+002	2.0934675E+000	1.000000000000000E+000	11	1.3280071E-001	5.5922498E-004	-3.726854356070867E-006	9.0614770E-004	4.1904063E-003	4.1604383E-004	4.2110090E-003	5.6700206E+000	-5.316856593534695E-007
2.8170074E+001	2.3771642E+002	2.4051563E+001	2.3893005E+002	-5.7773857E+000	6.297676480458176E+001	3.3036528E+000	-2.4704475E-004	2.3490315E+002	2.3803120E+000	1.000000000000000E+000	11	1.3279906E-001	5.5580726E-004	-2.889491635460419E-006	1.0664855E-003	4.1640662E-003	4.2130999E-004	4.1853255E-003	5.7773857E+000	8.373627206104479E-007
2.5104435E+001	2.3915974E+002	2.4712397E+001	2.4043312E+002	-5.8994408E+000	6.373294548050035E+001	3.3036578E+000	-1.6951919E-004	2.5653986E+002	2.7101665E+000	1.000000000000000E+000	11	1.3280453E-001	5.5235537E-004	-2.539139920646752E-006	6.6564087E-004	4.1371332E-003	4.2749030E-004	4.1591609E-003	5.8994408E+000	3.503517148136679E-007
2.2385387E+001	2.4063615E+002	2.5463942E+001	2.4197969E+002	-6.0405178E+000	6.441945095304982E+001	3.3036318E+000	-3.2531549E-004	2.7920932E+002	3.0918849E+000	1.000000000000000E+000	11	1.3280152E-001	5.4881268E-004	-3.390454029342638E-006	5.0530297E-004	4.1096332E-003	4.3487837E-004	4.1325781E-003	6.0405178E+000	-8.513141086958868E-007
1.9955299E+001	2.4213863E+002	2.6290113E+001	2.4356166E+002	-6.1965952E+000	6.518019301586901E+001	3.3036551E+000	-2.8599330E-004	3.0336777E+002	3.5345693E+000	1.000000000000000E+000	11	1.3279741E-001	5.4523116E-004	-2.689447942812371E-006	5.8547192E-004	4.0817484E-003	4.4317433E-004	4.1057365E-003	6.1965952E+000	7.010060865302676E-007
1.7796129E+001	2.4373502E+002	2.7223919E+001	2.4525069E+002	-6.3732214E+000	6.602451617599581E+001	3.3036213E+000	-3.4814462E-004	3.2850647E+002	4.0478535E+000	1.000000000000000E+000	11	1.3280120E-001	5.4149167E-004	-2.937442736598314E-006	5.8547192E-004	4.0522614E-003	4.5261631E-004	4.0774606E-003	6.3732214E+000	-2.479947937859429E-007
1.5857576E+001	2.4539156E+002	2.8253212E+001	2.4701266E+002	-6.5678434E+000	6.674591498359223E+001	3.3036532E+000	-5.7518242E-005	3.5523480E+002	4.6474285E+000	1.000000000000000E+000	11	1.3279414E-001	5.3760054E-004	-3.793104527978964E-006	5.8547192E-004	4.0218062E-003	4.6305161E-004	4.0483754E-003	6.5678434E+000	-8.556617913806504E-007
1.4118974E+001	2.4710370E+002	2.9354588E+001	2.4884117E+002	-6.7746806E+000	6.754821771502611E+001	3.3036273E+000	-2.8040318E-004	3.8400867E+002	5.3437791E+000	1.000000000000000E+000	11	1.3279372E-001	5.3364853E-004	-4.779626149975229E-006	8.2597876E-004	3.9905682E-003	4.7405803E-004	4.0186276E-003	6.7746806E+000	-9.865216219962647E-007
1.2600808E+001	2.4883174E+002	3.0561205E+001	2.5070146E+002	-7.0019302E+000	6.843883543735137E+001	3.3036149E+000	-3.5653138E-004	4.1328656E+002	6.1415572E+000	1.000000000000000E+000	11	1.3280363E-001	5.2972819E-004	-3.005737668997932E-006	5.8547192E-004	3.9590597E-003	4.8624680E-004	3.9888080E-003	7.0019302E+000	1.773888480977297E-006
1.1224856E+001	2.5072867E+002	3.1835148E+001	2.5274165E+002	-7.2361541E+000	6.912292162983795E+001	3.3036215E+000	-2.5375455E-004	4.4538181E+002	7.0663080E+000	1.000000000000000E+000	11	1.3279746E-001	5.2542769E-004	-6.134928654328481E-006	8.2597876E-004	3.9250967E-003	4.9837149E-004	3.9566094E-003	7.2361541E+000	-3.129190985330550E-006
1.0003201E+001	2.5268953E+002	3.3308323E+001	2.5487535E+002	-7.5091639E+000	6.988268451927433E+001	3.3036497E+000	-2.2356401E-004	4.7767047E+002	8.1578979E+000	1.000000000000000E+000	11	1.3280652E-001	5.2106462E-004	-2.304389476564312E-006	7.4580981E-004	3.8898385E-003	5.1273988E-004	3.9234865E-003	7.5091639E+000	3.830539177764170E-006
8.9183798E+000	2.5472939E+002	3.4807964E+001	2.5709659E+002	-7.7810950E+000	7.072704306602827E+001	3.3036096E+000	-2.8608780E-004	5.1269086E+002	9.3976698E+000	1.000000000000000E+000	11	1.3280070E-001	5.1654008E-004	-5.655490723304360E-006	1.2268235E-003	3.8537758E-003	5.2660622E-004	3.8895889E-003	7.7810950E+000	-3.351101246740048E-006
7.9395342E+000	2.5693604E+002	3.6437080E+001	2.5950681E+002	-8.0715122E+000	7.166467204390938E+001	3.3036170E+000	-4.1942770E-004	5.5015057E+002	1.0846040E+001	1.000000000000000E+000	11	1.3279906E-001	5.1173632E-004	-1.851539769539765E-006	7.4580981E-004	3.8152896E-003	5.4106087E-004	3.8534636E-003	8.0715122E+000	3.803950953764595E-006
7.0765405E+000	2.5920126E+002	3.8091675E+001	2.6198526E+002	-8.3602257E+000	7.222303679041215E+001	3.3035994E+000	-2.1387442E-004	5.9043091E+002	1.2481750E+001	1.000000000000000E+000	11	1.3279957E-001	5.0689711E-004	-1.439261032822995E-006	8.2597876E-004	3.7764471E-003	5.5497873E-004	3.8170086E-003	8.3602257E+000	4.122787367167701E-007
6.3105822E+000	2.6149982E+002	3.9784626E+001	2.6450891E+002	-8.6506519E+000	7.284319903320284E+001	3.3035910E+000	7.0655305E-004	6.3392139E+002	1.4341195E+001	1.000000000000000E+000	11	1.3279893E-001	5.0205842E-004	-1.101872153551085E-006	4.2513400E-004	3.7375824E-003	5.6863640E-004	3.7805911E-003	8.6506519E+000	3.373888792719096E-007
5.6205034E+000	2.6414777E+002	4.1804165E+001	2.6743527E+002	-8.9930744E+000	7.375964209008816E+001	3.3036144E+000	5.8697228E-004	6.7736914E+002	1.6551109E+001	1.000000000000000E+000	12	1.3279837E-001	4.9656269E-004	-5.888271115822136E-006	9.8631659E-004	3.6932572E-003	5.8449688E-004	3.7392227E-003	8.9930744E+000	-4.786398962271050E-006
5.0144415E+000	2.6675735E+002	4.3835236E+001	2.7033499E+002	-9.3318014E+000	7.451719481937471E+001	3.3036189E+000	7.7683589E-004	7.2405945E+002	1.9037785E+001	1.000000000000000E+000	12	1.3279960E-001	4.9124088E-004	-4.492774302337137E-006	5.0530297E-004	3.6501596E-003	5.9981702E-004	3.6991141E-003	9.3318014E+000	1.395496813484998E-006
4.4693937E+000	2.6942233E+002	4.6047073E+001	2.7332898E+002	-9.6987333E+000	7.535848856598022E+001	3.3036337E+000	8.2152570E-004	7.7333820E+002	2.1948366E+001	1.000000000000000E+000	12	1.3280480E-001	4.8587893E-004	-1.031236772309542E-005	1.1466546E-003	3.6063031E-003	6.1635463E-004	3.6585948E-003	9.6987333E+000	-5.819593420758287E-006
3.9778514E+000	2.7254095E+002	4.8287464E+001	2.7678558E+002	-1.0047119E+001	7.629520285045146E+001	3.3036220E+000	-4.9768358E-005	8.2858521E+002	2.5218487E+001	1.000000000000000E+000	12	1.3280071E-001	4.7979635E-004	-1.359899992269089E-005	6.6564087E-004	3.5574997E-003	6.3030020E-004	3.6129050E-003	1.0047119E+001	-3.286632199595463E-006
3.5511365E+000	2.7545520E+002	5.0665367E+001	2.8007596E+002	-1.0422109E+001	7.733641569994506E+001	3.3036165E+000	-3.7626957E-004	8.8458905E+002	2.8947582E+001	1.000000000000000E+000	12	1.3279921E-001	4.7415428E-004	-4.353403393737001E-006	1.8462716E-004	3.5115536E-003	6.4589141E-004	3.5704600E-003	1.0422109E+001	9.245596528953885E-006
3.1603966E+000	2.7879520E+002	5.3078480E+001	2.8380289E+002	-1.0779268E+001	7.849921842184267E+001	3.3036208E+000	4.8808224E-004	9.4876807E+002	3.3186649E+001	1.000000000000000E+000	12	1.3280272E-001	4.6794000E-004	-5.844556548621363E-006	5.0530297E-004	3.4613989E-003	6.5899920E-004	3.5235723E-003	1.0779268E+001	-1.491153154884362E-006
2.8183618E+000	2.8219250E+002	5.5820190E+001	2.8766040E+002	-1.1189170E+001	7.979367229668424E+001	3.3036370E+000	2.5220506E-004	1.0116541E+003	3.8093819E+001	1.000000000000000E+000	12	1.3280123E-001	4.6165977E-004	-1.571388878196416E-005	3.4496505E-004	3.4102430E-003	6.7457644E-004	3.4763215E-003	1.1189170E+001	-9.869332233342799E-006
2.5136740E+000	2.8566745E+002	5.8491524E+001	2.9159415E+002	-1.1571594E+001	8.123771967193898E+001	3.3036320E+000	-2.6361251E-004	1.0824760E+003	4.3555851E+001	1.000000000000000E+000	12	1.3280004E-001	4.5542765E-004	-1.624435372264189E-006	9.0614770E-004	3.3597203E-003	6.8791589E-004	3.4294240E-003	1.1571594E+001	1.408945340969997E-005
2.2398219E+000	2.8951883E+002	6.1295918E+001	2.9593637E+002	-1.1953941E+001	8.285233390858048E+001	3.3036323E+000	3.2075480E-004	1.1592446E+003	4.9732639E+001	1.000000000000000E+000	12	1.3279976E-001	4.4874431E-004	-9.969015387965354E-006	1.0664855E-003	3.3058268E-003	6.9989811E-004	3.3791047E-003	1.1953941E+001	-8.344580015701165E-006
1.9970604E+000	2.9354358E+002	6.4369453E+001	3.0051831E+002	-1.2368292E+001	8.465563314095380E+001	3.3036385E+000	1.0956212E-005	1.2380811E+003	5.6802422E+001	1.000000000000000E+000	12	1.3279863E-001	4.4189862E-004	-1.284086787120355E-005	7.4580981E-004	3.2503544E-003	7.1275124E-004	3.3275844E-003	1.2368292E+001	-2.871852483238196E-006
1.7796129E+000	2.9767551E+002	6.7598816E+001	3.0525449E+002	-1.2794253E+001	8.667285843673744E+001	3.3036389E+000	2.7685273E-005	1.3229867E+003	6.4879807E+001	1.000000000000000E+000	12	1.3280021E-001	4.3504752E-004	1.483184903373412E-006	5.8547192E-004	3.1946183E-003	7.2546251E-004	3.2759551E-003	1.2794253E+001	1.432405277457696E-005
1.5846854E+000	3.0200656E+002	7.0928864E+001	3.1022391E+002	-1.3216877E+001	8.893210054401425E+001	3.3036397E+000	3.2854680E-004	1.4159701E+003	7.4020081E+001	1.000000000000000E+000	12	1.3280170E-001	4.2808338E-004	-2.043190760438008E-005	8.2597876E-004	3.1380933E-003	7.3700841E-004	3.2234781E-003	1.3216877E+001	-2.191509250775349E-005
1.4122382E+000	3.0657349E+002	7.4353058E+001	3.1546106E+002	-1.3632680E+001	9.146111367750564E+001	3.3036480E+000	-2.3197893E-004	1.5157002E+003	8.4201431E+001	1.000000000000000E+000	12	1.3280046E-001	4.2097259E-004	3.828095288832527E-006	8.2597876E-004	3.0806551E-003	7.4714911E-004	3.1699634E-003	1.3632680E+001	2.426000289321261E-005
1.2596743E+000	3.1139499E+002	7.7926323E+001	3.2099744E+002	-1.4049676E+001	9.428995997188031E+001	3.3036487E+000	3.5965620E-004	1.6213533E+003	9.5552689E+001	1.000000000000000E+000	12	1.3279727E-001	4.1370196E-004	-1.724432397272732E-005	6.6564087E-004	3.0220977E-003	7.5627724E-004	3.1152896E-003	1.4049676E+001	-2.107241926155984E-005
1.1224856E+000	3.1650809E+002	8.1772247E+001	3.2690070E+002	-1.4486033E+001	9.745814004234853E+001	3.3036449E+000	-2.0909020E-004	1.7339374E+003	1.0849596E+002	1.000000000000000E+000	12	1.3279974E-001	4.0623880E-004	-3.279016988783547E-006	3.4496505E-004	2.9617820E-003	7.6519873E-004	3.0590328E-003	1.4486033E+001	1.396530698394377E-005
1.0000638E+000	3.2185129E+002	8.5846611E+001	3.3310342E+002	-1.4934675E+001	1.010072879442305E+002	3.3036463E+000	2.7416658E-004	1.8538274E+003	1.2312816E+002	1.000000000000000E+000	12	1.3279825E-001	3.9866974E-004	-7.197189262063957E-006	8.2597876E-004	2.9006614E-003	7.7368639E-004	3.0020706E-003	1.4934675E+001	-3.918172273280409E-006