EC-Lab ASCII FILE
Nb header lines : 60                          

Potentio Electrochemical Impedance Spectroscopy

Run on channel : 14 (SN 41308)
User : 
CE vs. WE compliance from -10 V to 10 V
Electrode connection : standard
Ewe ctrl range : min = -5.00 V, max = 5.00 V
Acquisition started on : 12/03/2020 16:52:25
Technique started on : 12/03/2020 16:52:26
Saved on :
	File : DE_206_14_30.mpr
	Directory : P:\Chemistry\Data\VMP3\Kyler\DOE\DE_206\
	Host : 10.0.4.64
Device : VMP3 (SN 1432)
Address : USB
EC-Lab for windows v11.33 (software)
Internet server v11.32 (firmware)
Command interpretor v11.33 (firmware)
Electrode material : 
Initial state : 
Electrolyte : 
Comments : 
Electrode surface area : 0.001 cm²
Characteristic mass : 0.001 g
Equivalent Weight : 0.000 g/eq.
Density : 0.000 g/cm3
Record Analogic IN 1
Cycle Definition : Charge/Discharge alternance
Mode                Single sine         
E (V)               0.0000              
vs.                 Eoc                 
tE (h:m:s)          0:00:0.0000         
record              0                   
dI                  1.000               
unit dI             mA                  
dt (s)              0.000               
fi                  1.000               
unit fi             MHz                 
ff                  1.000               
unit ff             Hz                  
Nd                  20                  
Points              per decade          
spacing             Logarithmic         
Va (mV)             128.0               
pw                  0.50                
Na                  3                   
corr                0                   
E range min (V)     -5.000              
E range max (V)     5.000               
I Range             Auto                
Bandwidth           5                   
nc cycles           0                   
goto Ns'            0                   
nr cycles           0                   
inc. cycle          1                   

freq/Hz	Re(Z)/Ohm	-Im(Z)/Ohm	|Z|/Ohm	Phase(Z)/deg	time/s	<Ewe>/V	<I>/mA	Cs/µF	Cp/µF	cycle number	I Range	|Ewe|/V	|I|/A	(Q-Qo)/mA.h	Analog IN 1/V	Re(Y)/Ohm-1	Im(Y)/Ohm-1	|Y|/Ohm-1	Phase(Y)/deg	dq/mA.h	
1.0000186E+006	-9.7946310E-001	-2.9892330E+000	3.1456099E+000	1.0814209E+002	1.844600087642903E+000	3.2742097E+000	-5.6345414E-002	-5.3241748E-002	-4.8079740E-002	1.000000000000000E+000	9	9.0038586E-005	2.8623570E-005	-2.799850399697284E-006	-1.0060851E-004	-9.8987035E-002	-3.0209953E-001	3.1790337E-001	-1.0814209E+002	-2.799850399697284E-006
8.9124669E+005	-1.0675048E+000	-3.5642152E+000	3.7206447E+000	1.0667329E+002	2.549477774387924E+000	3.2737300E+000	-6.3098870E-002	-5.0102372E-002	-4.5977961E-002	1.000000000000000E+000	9	1.2223280E-004	3.2852586E-005	-1.081473131653264E-005	-1.0060851E-004	-7.7114038E-002	-2.5747055E-001	2.6877064E-001	-1.0667329E+002	-8.014880916835359E-006
7.9433269E+005	-2.6345903E-001	-4.1562624E+000	4.1646042E+000	9.3627037E+001	3.145486202702159E+000	3.2734442E+000	-6.4721934E-002	-4.8207514E-002	-4.8014585E-002	1.000000000000000E+000	9	1.3099080E-004	3.1453361E-005	-1.889056328665295E-005	-2.6082556E-004	-1.5190272E-002	-2.3963790E-001	2.4011886E-001	-9.3627037E+001	-8.075831970120312E-006
7.0794981E+005	8.8006610E-001	-4.0423713E+000	4.1370621E+000	7.7717773E+001	3.363600159791531E+000	3.2733231E+000	-6.0095258E-002	-5.5613656E-002	-5.3096972E-002	1.000000000000000E+000	9	7.9760190E-005	1.9279427E-005	-2.158920923240738E-005	-1.0060851E-004	5.1419895E-002	-2.3618491E-001	2.4171743E-001	-7.7717773E+001	-2.698645945754429E-006
6.3095681E+005	-3.8929662E-001	-4.4078212E+000	4.4249792E+000	9.5047241E+001	3.693600175465690E+000	3.2732446E+000	-6.1457142E-002	-5.7226416E-002	-5.6783479E-002	1.000000000000000E+000	9	4.6518740E-005	1.0512759E-005	-2.475096509444282E-005	-5.0115114E-004	-1.9881921E-002	-2.2511348E-001	2.2598976E-001	-9.5047241E+001	-3.161755862035433E-006
5.6234225E+005	1.5719994E+000	-3.7402761E+000	4.0571971E+000	6.7203491E+001	4.398496395529946E+000	3.2732003E+000	-5.7781912E-002	-7.5668611E-002	-6.4308867E-002	1.000000000000000E+000	9	2.7862689E-004	6.8674723E-005	-3.379947313755434E-005	-1.8071703E-004	9.5499285E-002	-2.2722258E-001	2.4647558E-001	-6.7203491E+001	-9.048508043111519E-006
5.0120619E+005	1.7018238E+000	-3.1966610E+000	3.6214426E+000	6.1970257E+001	4.995477757271146E+000	3.2731819E+000	-5.1867977E-002	-9.9336110E-002	-7.7399313E-002	1.000000000000000E+000	9	6.0975144E-004	1.6837253E-004	-3.960624995954600E-005	-3.4093409E-004	1.2976317E-001	-2.4374369E-001	2.7613306E-001	-6.1970257E+001	-5.806776821991666E-006
4.4668572E+005	2.0004930E+000	-2.8888535E+000	3.5138934E+000	5.5297909E+001	5.591491838888032E+000	3.2731693E+000	-5.5207387E-002	-1.2333675E-001	-8.3361670E-002	1.000000000000000E+000	9	1.0673065E-003	3.0373901E-004	-4.746154643331991E-005	-2.6082556E-004	1.6201673E-001	-2.3396362E-001	2.8458461E-001	-5.5297909E+001	-7.855296473773908E-006
3.9810347E+005	2.1360517E+000	-2.5097406E+000	3.2956812E+000	4.9598743E+001	6.186481573822675E+000	3.2731495E+000	-5.7856526E-002	-1.5929250E-001	-9.2376739E-002	1.000000000000000E+000	9	1.6394057E-003	4.9744063E-004	-5.411651912155341E-005	-3.4093409E-004	1.9666240E-001	-2.3106727E-001	3.0342740E-001	-4.9598743E+001	-6.654972688233501E-006
3.5480997E+005	2.2547889E+000	-2.1767042E+000	3.1340253E+000	4.3990532E+001	6.782491068792297E+000	3.2731340E+000	-5.5393931E-002	-2.0607480E-001	-9.9407405E-002	1.000000000000000E+000	9	2.3545381E-003	7.5128238E-004	-6.220030176747525E-005	-3.4093409E-004	2.2956248E-001	-2.2161260E-001	3.1907848E-001	-4.3990532E+001	-8.083782645921836E-006
3.1622997E+005	2.3301945E+000	-1.8799186E+000	2.9939773E+000	3.8895363E+001	7.377494297077646E+000	3.2731082E+000	-5.5356614E-002	-2.6771829E-001	-1.0555021E-001	1.000000000000000E+000	9	3.2438112E-003	1.0834455E-003	-6.928211487476074E-005	-3.4093409E-004	2.5995320E-001	-2.0972104E-001	3.3400387E-001	-3.8895363E+001	-7.081813107285491E-006
2.8183453E+005	2.3887517E+000	-1.6049075E+000	2.8778226E+000	3.3895584E+001	7.972479258634849E+000	3.2730491E+000	-5.8751985E-002	-3.5186487E-001	-1.0943289E-001	1.000000000000000E+000	9	4.3697143E-003	1.5184098E-003	-8.021033450699825E-005	-1.8071703E-004	2.8843167E-001	-1.9378579E-001	3.4748492E-001	-3.3895584E+001	-1.092821963223751E-005
2.5118764E+005	2.4281259E+000	-1.3457477E+000	2.7761183E+000	2.8996670E+001	8.567494433576940E+000	3.2729967E+000	-5.5319268E-002	-4.7082356E-001	-1.1063934E-001	1.000000000000000E+000	9	5.8073127E-003	2.0918823E-003	-9.286240134670192E-005	-9.8180224E-004	3.1506145E-001	-1.7461747E-001	3.6021519E-001	-2.8996670E+001	-1.265206683970367E-005
2.2387173E+005	2.4631157E+000	-1.1148582E+000	2.7036729E+000	2.4352512E+001	9.163493635220220E+000	3.2729652E+000	-5.7315454E-002	-6.3767773E-001	-1.0842568E-001	1.000000000000000E+000	9	7.7008922E-003	2.8483076E-003	-9.866421879344205E-005	-2.6082556E-004	3.3695856E-001	-1.5251456E-001	3.6986724E-001	-2.4352512E+001	-5.801817446740134E-006
1.9954350E+005	2.4949555E+000	-8.9985222E-001	2.6522701E+000	1.9832785E+001	9.760478810261702E+000	3.2729454E+000	-5.7166178E-002	-8.8636249E-001	-1.0202774E-001	1.000000000000000E+000	9	1.0297679E-002	3.8825909E-003	-9.641775953296262E-005	-2.0499996E-005	3.5467231E-001	-1.2791918E-001	3.7703550E-001	-1.9832785E+001	2.246459260479437E-006
1.7783180E+005	2.5239017E+000	-7.0638055E-001	2.6208880E+000	1.5635679E+001	1.035548923848546E+001	3.2729511E+000	-5.6307968E-002	-1.2669865E+000	-9.2034899E-002	1.000000000000000E+000	9	1.3951552E-002	5.3232159E-003	-9.119438719395030E-005	-4.2104261E-004	3.6743078E-001	-1.0283520E-001	3.8155007E-001	-1.5635679E+001	5.223372339012311E-006
1.5848613E+005	2.5466008E+000	-5.2469635E-001	2.6000926E+000	1.1642184E+001	1.095048924008734E+001	3.2729509E+000	-5.1513311E-002	-1.9139072E+000	-7.7939801E-002	1.000000000000000E+000	9	1.9186333E-002	7.3790955E-003	-8.700769204656697E-005	-8.2158518E-004	3.7668926E-001	-7.7612266E-002	3.8460168E-001	-1.1642184E+001	4.186695147383331E-006
1.4125594E+005	2.5695231E+000	-3.5335174E-001	2.5937052E+000	7.8300023E+000	1.154548646832700E+001	3.2729511E+000	-4.8994657E-002	-3.1886451E+000	-5.9180610E-002	1.000000000000000E+000	9	2.6932471E-002	1.0383783E-002	-9.172314216827767E-005	-4.2104261E-004	3.8195422E-001	-5.2524995E-002	3.8554883E-001	-7.8300023E+000	-4.715450121710695E-006
1.2590930E+005	2.5923977E+000	-1.8995458E-001	2.5993478E+000	4.1907845E+000	1.214249196337187E+001	3.2730012E+000	-3.4461465E-002	-6.6544561E+000	-3.5537209E-002	1.000000000000000E+000	9	4.0402334E-002	1.5543259E-002	-6.759647477945934E-005	-7.4147672E-004	3.8368326E-001	-2.8113894E-002	3.8471189E-001	-4.1907845E+000	2.412666738881833E-005
1.1220494E+005	2.6177807E+000	-3.3939838E-002	2.6180007E+000	7.4280500E-001	1.273748239161796E+001	3.2731807E+000	4.9154948E-002	-4.1792503E+001	-7.0239012E-003	1.000000000000000E+000	9	1.0501438E-001	4.0112432E-002	-1.291219673237453E-004	-1.0060851E-004	3.8193876E-001	-4.9518817E-003	3.8197085E-001	-7.4280500E-001	-6.152549254428596E-005
1.0000371E+005	2.6380463E+000	1.2346421E-001	2.6409338E+000	-2.6795664E+000	1.360548485952313E+001	3.2732432E+000	3.0965390E-002	1.2890297E+001	2.8172804E-002	1.000000000000000E+000	9	1.1747243E-001	4.4481400E-002	-2.515487905358507E-004	-2.0499996E-005	3.7823993E-001	1.7702151E-002	3.7865394E-001	2.6795664E+000	-1.224268232121054E-004
8.9129305E+004	2.6610441E+000	2.7896434E-001	2.6756265E+000	-5.9846091E+000	1.420148158117081E+001	3.2732518E+000	1.1469930E-002	6.4010458E+000	6.9582067E-002	1.000000000000000E+000	9	1.1920019E-001	4.4550385E-002	-3.494791079159412E-004	-3.4093409E-004	3.7170732E-001	3.8967066E-002	3.7374425E-001	5.9846091E+000	-9.793031738009045E-005
7.9433273E+004	2.6865129E+000	4.3404841E-001	2.7213507E+000	-9.1777258E+000	1.479847507618251E+001	3.2734084E+000	4.3446425E-002	4.6161456E+000	1.1743210E-001	1.000000000000000E+000	9	1.2724733E-001	4.6758890E-002	-3.125560032044434E-004	-5.8125966E-004	3.6276042E-001	5.8609650E-002	3.6746457E-001	9.1777258E+000	3.692310471149779E-005
7.0794977E+004	2.7144911E+000	5.9136343E-001	2.7781599E+000	-1.2290100E+001	1.539348358448478E+001	3.2734137E+000	4.2495105E-002	3.8015721E+000	1.7224939E-001	1.000000000000000E+000	9	1.3165377E-001	4.7388840E-002	-3.408932803457396E-004	-1.0060851E-004	3.5170126E-001	7.6619625E-002	3.5995048E-001	1.2290100E+001	-2.833727714129621E-005
6.3093828E+004	2.7457349E+000	7.5207663E-001	2.8468719E+000	-1.5318026E+001	1.599049507945892E+001	3.2734785E+000	4.2774864E-002	3.3540626E+000	2.3407741E-001	1.000000000000000E+000	9	1.3397108E-001	4.7059048E-002	-3.165319419835384E-004	-4.2104261E-004	3.3878392E-001	9.2795357E-002	3.5126275E-001	1.5318026E+001	2.436133836220125E-005
5.6237012E+004	2.7797561E+000	9.1619468E-001	2.9268510E+000	-1.8241980E+001	1.658749750783318E+001	3.2734168E+000	2.4790410E-002	3.0889449E+000	3.0268049E-001	1.000000000000000E+000	9	1.3464943E-001	4.6004876E-002	-2.320959346654515E-004	-5.8125966E-004	3.2449311E-001	1.0695142E-001	3.4166414E-001	1.8241980E+001	8.443600731808691E-005
5.0122477E+004	2.8191853E+000	1.0888675E+000	3.0221579E+000	-2.1118298E+001	1.718347588283359E+001	3.2734659E+000	3.3931766E-002	2.9161680E+000	3.7855443E-001	1.000000000000000E+000	9	1.3409999E-001	4.4372264E-002	-2.090330387269043E-004	-5.0115114E-004	3.0866638E-001	1.1921771E-001	3.3088940E-001	2.1118298E+001	2.306289593854714E-005
4.4666715E+004	2.8615491E+000	1.2701310E+000	3.1307662E+000	-2.3934584E+001	1.777947940447484E+001	3.2734344E+000	1.4809364E-002	2.8053534E+000	4.6172497E-001	1.000000000000000E+000	9	1.3277170E-001	4.2408694E-002	-1.590677594615974E-004	-1.0060851E-004	2.9194427E-001	1.2958276E-001	3.1941062E-001	2.3934584E+001	4.996527926530688E-005
3.9814063E+004	2.9096801E+000	1.4596344E+000	3.2552681E+000	-2.6640528E+001	1.823947414630675E+001	3.2739463E+000	-1.1327647E-002	2.7386692E+000	5.5062282E-001	1.000000000000000E+000	9	1.3715747E-001	4.2134002E-002	-1.408091985695064E-004	-3.4093409E-004	2.7458176E-001	1.3774332E-001	3.0719435E-001	2.6640528E+001	1.825856089209102E-005
3.5480996E+004	2.9623961E+000	1.6626996E+000	3.3971107E+000	-2.9304125E+001	1.869847686143476E+001	3.2734427E+000	2.1600226E-002	2.6978049E+000	6.4627701E-001	1.000000000000000E+000	9	1.3926721E-001	4.0995780E-002	-1.532164898813806E-004	-3.4093409E-004	2.5669873E-001	1.4407691E-001	2.9436779E-001	2.9304125E+001	-1.240729131187415E-005
3.1621143E+004	3.0232008E+000	1.8797612E+000	3.5599501E+000	-3.1872459E+001	1.915848157662549E+001	3.2734444E+000	1.9398788E-002	2.6775641E+000	7.4654746E-001	1.000000000000000E+000	9	1.3953206E-001	3.9194949E-002	-1.401590076738762E-004	-5.8125966E-004	2.3854984E-001	1.4832516E-001	2.8090280E-001	3.1872459E+001	1.305748220750442E-005
2.8188096E+004	3.0885706E+000	2.1115816E+000	3.7413962E+000	-3.4359478E+001	1.961847554511041E+001	3.2734776E+000	3.0722890E-002	2.6739082E+000	8.5171610E-001	1.000000000000000E+000	9	1.3859583E-001	3.7043881E-002	-1.531270338584565E-004	-5.8125966E-004	2.2064298E-001	1.5084831E-001	2.6727989E-001	3.4359478E+001	-1.296802618458038E-005
2.5116910E+004	3.1632981E+000	2.3620827E+000	3.9478970E+000	-3.6749256E+001	2.007748255357728E+001	3.2734272E+000	9.0073105E-003	2.6826179E+000	9.6032315E-001	1.000000000000000E+000	9	1.3689713E-001	3.4675963E-002	-1.381304472260074E-004	-5.0115114E-004	2.0295909E-001	1.5155263E-001	2.5329942E-001	3.6749256E+001	1.499658663244916E-005
2.2389027E+004	3.2473972E+000	2.6330109E+000	4.1807098E+000	-3.9035366E+001	2.053748670881032E+001	3.2734571E+000	3.2308519E-002	2.6998041E+000	1.0708718E+000	1.000000000000000E+000	9	1.3487282E-001	3.2260746E-002	-1.416913339763285E-004	-1.0060851E-004	1.8579556E-001	1.5064426E-001	2.3919383E-001	3.9035366E+001	-3.560886750321094E-006
1.9948783E+004	3.3423636E+000	2.9265835E+000	4.4425540E+000	-4.1205486E+001	2.099747990394826E+001	3.2734323E+000	1.5144943E-002	2.7261064E+000	1.1830394E+000	1.000000000000000E+000	9	1.3274854E-001	2.9881133E-002	-1.104023902447273E-004	-2.6082556E-004	1.6935121E-001	1.4828442E-001	2.2509575E-001	4.1205486E+001	3.128894373160113E-005
1.7786895E+004	3.4595747E+000	3.2323172E+000	4.7346101E+000	-4.3054974E+001	2.162348550700699E+001	3.2735450E+000	-8.0612674E-003	2.7682545E+000	1.2902253E+000	1.000000000000000E+000	10	1.3437602E-001	2.8381644E-002	-6.766363246594038E-005	-5.0115114E-004	1.5433140E-001	1.4419346E-001	2.1121064E-001	4.3054974E+001	4.273875777878695E-005
1.5847686E+004	3.5795860E+000	3.5782852E+000	5.0613794E+000	-4.4989590E+001	2.221849116196972E+001	3.2735443E+000	-7.4253790E-003	2.8065922E+000	1.4027861E+000	1.000000000000000E+000	10	1.3034581E-001	2.5753021E-002	-6.081807139712489E-005	-4.2104261E-004	1.3973172E-001	1.3968095E-001	1.9757460E-001	4.4989590E+001	6.845561068815492E-006
1.4121879E+004	3.7163613E+000	3.9523828E+000	5.4251885E+000	-4.6762840E+001	2.267848811714794E+001	3.2735529E+000	-8.2237981E-003	2.8514688E+000	1.5134113E+000	1.000000000000000E+000	10	1.3500129E-001	2.4884164E-002	-7.544050922793233E-005	-6.6136819E-004	1.2626654E-001	1.3428557E-001	1.8432540E-001	4.6762840E+001	-1.462243783080744E-005
1.2590932E+004	3.8695965E+000	4.3564324E+000	5.8268585E+000	-4.8386948E+001	2.313848136566230E+001	3.2735584E+000	-7.8153051E-003	2.9015582E+000	1.6219009E+000	1.000000000000000E+000	10	1.3611606E-001	2.3360111E-002	-6.067069145178216E-005	-1.1420193E-003	1.1397162E-001	1.2831044E-001	1.7161906E-001	4.8386948E+001	1.476981777615018E-005
1.1217711E+004	4.0440655E+000	4.7984343E+000	6.2753038E+000	-4.9876194E+001	2.359848920084187E+001	3.2735548E+000	-7.7817589E-003	2.9567621E+000	1.7288047E+000	1.000000000000000E+000	10	1.3481201E-001	2.1482946E-002	-5.980905391244839E-005	-3.4093409E-004	1.0269485E-001	1.2185127E-001	1.5935484E-001	4.9876194E+001	8.616375393337685E-007
1.0002229E+004	4.2394485E+000	5.2747569E+000	6.7672729E+000	-5.1210327E+001	2.405847727603395E+001	3.2735498E+000	-8.7293480E-003	3.0166216E+000	1.8327295E+000	1.000000000000000E+000	10	1.3219415E-001	1.9534331E-002	-4.232197100172440E-005	-2.6082556E-004	9.2572495E-002	1.1517947E-001	1.4777002E-001	5.1210327E+001	1.748708291072399E-005
8.9149297E+003	4.4612150E+000	5.7931981E+000	7.3118796E+000	-5.2400917E+001	2.454090519229067E+001	3.2735565E+000	-4.8794667E-003	3.0816536E+000	1.9344723E+000	1.000000000000000E+000	10	1.2910269E-001	1.7656567E-002	-4.052558477150484E-005	-5.8125966E-004	8.3443999E-002	1.0835782E-001	1.3676374E-001	5.2400917E+001	1.796386230219568E-006
7.9439976E+003	4.7123337E+000	6.3561025E+000	7.9124036E+000	-5.3447231E+001	2.506698601727840E+001	3.2735555E+000	-2.0704549E-003	3.1520286E+000	2.0340192E+000	1.000000000000000E+000	10	1.2600371E-001	1.5924834E-002	-4.133471496330781E-005	-3.4093409E-004	7.5269520E-002	1.0152524E-001	1.2638384E-001	5.3447231E+001	-8.091301918029749E-007
7.0822334E+003	4.9950724E+000	6.9618549E+000	8.5684404E+000	-5.4340878E+001	2.564385652469355E+001	3.2735660E+000	1.4361220E-004	3.2279363E+000	2.1309404E+000	1.000000000000000E+000	10	1.2317850E-001	1.4375837E-002	-2.755605439552003E-005	-4.2104261E-004	6.8035915E-002	9.4824687E-002	1.1670735E-001	5.4340878E+001	1.377866056778779E-005
6.3077344E+003	5.3176875E+000	7.6219049E+000	9.2936125E+000	-5.5097103E+001	2.627855663481751E+001	3.2735672E+000	2.4247537E-003	3.3104208E+000	2.2265944E+000	1.000000000000000E+000	10	1.2069354E-001	1.2986721E-002	-3.891334167857551E-005	2.9993406E-004	6.1567806E-002	8.8245876E-002	1.0760079E-001	5.5097103E+001	-1.135728728305548E-005
5.6210552E+003	5.6801572E+000	8.3298178E+000	1.0082165E+001	-5.5709667E+001	2.697928602810134E+001	3.2735813E+000	7.7369404E-003	3.3991222E+000	2.3202255E+000	1.000000000000000E+000	10	1.1857891E-001	1.1761255E-002	-2.959580589013381E-005	-2.0499996E-005	5.5879533E-002	8.1946030E-002	9.9185050E-002	5.5709667E+001	9.317535788441695E-006
5.0116035E+003	6.0876336E+000	9.0878983E+000	1.0938427E+001	-5.6183392E+001	2.773970982425089E+001	3.2736015E+000	1.1961756E-002	3.4944592E+000	2.4121101E+000	1.000000000000000E+000	10	1.1681214E-001	1.0679062E-002	-2.467211414951210E-005	5.9608523E-005	5.0879020E-002	7.5954542E-002	9.1420822E-002	5.6183392E+001	4.923691740621710E-006
4.4664292E+003	6.5475221E+000	9.9028807E+000	1.1871693E+001	-5.6528381E+001	2.849970212701737E+001	3.2736001E+000	1.0982478E-002	3.5983062E+000	2.5037787E+000	1.000000000000000E+000	10	1.1533272E-001	9.7149340E-003	-1.771371802092633E-005	-2.0499996E-005	4.6457052E-002	7.0264548E-002	8.4233984E-002	5.6528381E+001	6.958396128585768E-006
3.9812742E+003	7.0751896E+000	1.0757668E+001	1.2875781E+001	-5.6667561E+001	2.947967196023092E+001	3.2735958E+000	1.0777304E-002	3.7160358E+000	2.5939944E+000	1.000000000000000E+000	10	1.2653951E-001	9.8277153E-003	-2.266045103773164E-005	-1.8071703E-004	4.2676710E-002	6.4888991E-002	7.7665195E-002	5.6667561E+001	-4.946733016805308E-006
3.5465955E+003	7.6602807E+000	1.1689406E+001	1.3975769E+001	-5.6762444E+001	3.023995050298981E+001	3.2735929E+000	1.0879883E-002	3.8389819E+000	2.6856506E+000	1.000000000000000E+000	10	1.2541848E-001	8.9739952E-003	-2.689470427809283E-005	-1.8071703E-004	3.9218705E-002	5.9846811E-002	7.1552411E-002	5.6762444E+001	-4.234253240361190E-006
3.1610112E+003	8.3134899E+000	1.2675788E+001	1.5158816E+001	-5.6740898E+001	3.099971168576303E+001	3.2735982E+000	1.0706399E-002	3.9720905E+000	2.7774003E+000	1.000000000000000E+000	10	1.2450048E-001	8.2130739E-003	-3.111957191029150E-005	-6.6136819E-004	3.6178686E-002	5.5162553E-002	6.5968208E-002	5.6740898E+001	-4.224867632198663E-006
2.8172952E+003	9.0426588E+000	1.3721518E+001	1.6433189E+001	-5.6614597E+001	3.175992577520083E+001	3.2735977E+000	1.0672805E-002	4.1170449E+000	2.8704250E+000	1.000000000000000E+000	10	1.2375438E-001	7.5307586E-003	-3.299873625580221E-005	-2.0499996E-005	3.3485163E-002	5.0811078E-002	6.0852461E-002	5.6614597E+001	-1.879164345510718E-006
2.5108032E+003	9.8579741E+000	1.4828698E+001	1.7806458E+001	-5.6384426E+001	3.251968829129328E+001	3.2735927E+000	1.0706364E-002	4.2746882E+000	2.9645271E+000	1.000000000000000E+000	10	1.2313748E-001	6.9153276E-003	-2.796458167277484E-005	-1.0060851E-004	3.1090852E-002	4.6767909E-002	5.6159403E-002	5.6384426E+001	5.034154583027378E-006
2.2378516E+003	1.0762654E+001	1.5990905E+001	1.9275471E+001	-5.6057533E+001	3.327992315404117E+001	3.2735984E+000	1.0310899E-002	4.4474988E+000	3.0609195E+000	1.000000000000000E+000	10	1.2262923E-001	6.3619316E-003	-2.103753097629589E-005	-5.8125966E-004	2.8967394E-002	4.3039087E-002	5.1879406E-002	5.6057533E+001	6.927050696478950E-006
1.9956389E+003	1.1759986E+001	1.7205942E+001	2.0840866E+001	-5.5648018E+001	3.403968225682183E+001	3.2735960E+000	1.1012204E-002	4.6351066E+000	3.1592581E+000	1.000000000000000E+000	10	1.2221643E-001	5.8642682E-003	-2.200127845702486E-005	-1.0060851E-004	2.7075425E-002	3.9613839E-002	4.7982652E-002	5.5648018E+001	-9.637474807289727E-007
1.7782927E+003	1.2870517E+001	1.8486086E+001	2.2525221E+001	-5.5153313E+001	3.479995965291164E+001	3.2735987E+000	1.0275427E-002	4.8414106E+000	3.2607968E+000	1.000000000000000E+000	10	1.2187439E-001	5.4105748E-003	-2.150638586791077E-005	-1.0060851E-004	2.5366342E-002	3.6433998E-002	4.4394679E-002	5.5153313E+001	4.948925891140871E-007
1.5855076E+003	1.4092019E+001	1.9811251E+001	2.4311945E+001	-5.4575226E+001	3.555966667568282E+001	3.2735953E+000	1.1605336E-002	5.0668716E+000	3.3645291E+000	1.000000000000000E+000	10	1.2160059E-001	5.0016809E-003	-1.536592068559387E-005	-4.2104261E-004	2.3841513E-002	3.3517566E-002	4.1132044E-002	5.4575226E+001	6.140465182316904E-006
1.4118373E+003	1.5448841E+001	2.1202538E+001	2.6233839E+001	-5.3921734E+001	3.632120249848231E+001	3.2735925E+000	1.0336954E-002	5.3167672E+000	3.4729588E+000	1.000000000000000E+000	10	1.2137441E-001	4.6266355E-003	-1.590191607919729E-005	-6.6136819E-004	2.2447718E-002	3.0808045E-002	3.8118705E-002	5.3921734E+001	-5.359953936034197E-007
1.2587914E+003	1.6918308E+001	2.2617043E+001	2.8244642E+001	-5.3202278E+001	3.708092594792834E+001	3.2735913E+000	1.0631668E-002	5.5902410E+000	3.5845118E+000	1.000000000000000E+000	10	1.2117896E-001	4.2903344E-003	-1.132706143313812E-005	-2.6082556E-004	2.1207271E-002	2.8350694E-002	3.5404947E-002	5.3202278E+001	4.574854646059168E-006
1.1217948E+003	1.8538303E+001	2.4084909E+001	3.0393282E+001	-5.2414299E+001	3.783945593060344E+001	3.2735896E+000	1.0540253E-002	5.8906293E+000	3.6991038E+000	1.000000000000000E+000	10	1.2103185E-001	3.9821910E-003	-1.141186718663408E-005	-1.8071703E-004	2.0068493E-002	2.6072929E-002	3.2902006E-002	5.2414299E+001	-8.480575349595772E-008
1.0003201E+003	2.0317802E+001	2.5536268E+001	3.2633022E+001	-5.1492668E+001	3.884968213861430E+001	3.2735877E+000	-4.4191832E-004	6.2305121E+000	3.8152587E+000	1.000000000000000E+000	11	1.2546536E-001	3.8447361E-003	-1.160249203298655E-005	-4.2104261E-004	1.9079287E-002	2.3979651E-002	3.0643806E-002	5.1492668E+001	-1.906248463524716E-007
8.9142657E+002	2.2238447E+001	2.7060791E+001	3.5026203E+001	-5.0586777E+001	3.960843396125711E+001	3.2735851E+000	-6.4350071E-004	6.5977230E+000	3.9381196E+000	1.000000000000000E+000	11	1.2452265E-001	3.5551284E-003	-1.168702266468770E-005	-4.2104261E-004	1.8126681E-002	2.2057403E-002	2.8550055E-002	5.0586777E+001	-8.453063170115062E-008
7.9423773E+002	2.4329052E+001	2.8604074E+001	3.7551243E+001	-4.9617340E+001	4.036795610404806E+001	3.2735913E+000	-6.2278856E-004	7.0055418E+000	4.0648909E+000	1.000000000000000E+000	11	1.2375557E-001	3.2956449E-003	-1.303087553938126E-005	-5.0115114E-004	1.7253473E-002	2.0285198E-002	2.6630277E-002	4.9617340E+001	-1.343852874693565E-006
7.0750946E+002	2.6600080E+001	3.0149857E+001	4.0206692E+001	-4.8579254E+001	4.113046038025641E+001	3.2735870E+000	-7.1369298E-004	7.4610958E+000	4.1954298E+000	1.000000000000000E+000	11	1.2312400E-001	3.0622764E-003	-1.176853728450887E-005	2.9993406E-004	1.6454561E-002	1.8650416E-002	2.4871482E-002	4.8579254E+001	1.262338254872399E-006
6.3100964E+002	2.9031004E+001	3.1669088E+001	4.2961964E+001	-4.7488564E+001	4.188841329622664E+001	3.2735920E+000	-7.1500329E-004	7.9643178E+000	4.3276434E+000	1.000000000000000E+000	11	1.2262001E-001	2.8541528E-003	-1.102431366919902E-005	-8.2158518E-004	1.5728736E-002	1.7158026E-002	2.3276404E-002	4.7488564E+001	7.442236153098457E-007
5.6233929E+002	3.1670528E+001	3.3164150E+001	4.5857204E+001	-4.6319710E+001	4.264490978553658E+001	3.2735872E+000	-5.8510853E-004	8.5340042E+000	4.4634986E+000	1.000000000000000E+000	11	1.2220293E-001	2.6648578E-003	-8.781662814564899E-006	-1.0060851E-004	1.5060527E-002	1.5770800E-002	2.1806825E-002	4.6319710E+001	2.242650854634121E-006
5.0144415E+002	3.4494564E+001	3.4596359E+001	4.8854713E+001	-4.5084419E+001	4.340218792812084E+001	3.2735908E+000	-6.1311963E-004	9.1741781E+000	4.6006060E+000	1.000000000000000E+000	11	1.2186208E-001	2.4943771E-003	-1.008558892328034E-005	-2.6082556E-004	1.4452324E-002	1.4494975E-002	2.0468853E-002	4.5084419E+001	-1.303926108715436E-006
4.4685895E+002	3.7531784E+001	3.5957363E+001	5.1976601E+001	-4.3772690E+001	4.415894215076696E+001	3.2735934E+000	-6.2730734E-004	9.9051676E+000	4.7404742E+000	1.000000000000000E+000	11	1.2158164E-001	2.3391610E-003	-8.169066962760148E-006	-1.8071703E-004	1.3892599E-002	1.3309818E-002	1.9239428E-002	4.3772690E+001	1.916521960520187E-006
3.9808920E+002	4.0783188E+001	3.7211063E+001	5.5208076E+001	-4.2377693E+001	4.492169528035447E+001	3.2735865E+000	-6.3122762E-004	1.0744040E+001	4.8809748E+000	1.000000000000000E+000	11	1.2135450E-001	2.1981294E-003	-8.652264651816546E-006	-1.8071703E-004	1.3380610E-002	1.2208627E-002	1.8113291E-002	4.2377693E+001	-4.831976890563974E-007
3.5465955E+002	4.4226112E+001	3.8315559E+001	5.8515221E+001	-4.0904217E+001	4.568194638311979E+001	3.2735801E+000	-6.4187060E-004	1.1712060E+001	5.0216446E+000	1.000000000000000E+000	11	1.2116674E-001	2.0706875E-003	-7.480857954412285E-006	-7.4147672E-004	1.2916387E-002	1.1190190E-002	1.7089570E-002	4.0904217E+001	1.171406697404260E-006
3.1631586E+002	4.7804462E+001	3.9234997E+001	6.1843769E+001	-3.9377068E+001	4.643894415241084E+001	3.2735915E+000	-7.0178387E-004	1.2824060E+001	5.1615586E+000	1.000000000000000E+000	11	1.2101108E-001	1.9567222E-003	-9.158600586505297E-006	1.3971704E-004	1.2499036E-002	1.0258449E-002	1.6169777E-002	3.9377068E+001	-1.677742632093012E-006
2.8189429E+002	5.1566105E+001	3.9948933E+001	6.5230209E+001	-3.7765411E+001	4.719439200157649E+001	3.2735901E+000	-6.1891315E-004	1.4132814E+001	5.3008008E+000	1.000000000000000E+000	11	1.2089050E-001	1.8532900E-003	-8.421855774979729E-006	-1.8071703E-004	1.2119000E-002	9.3887467E-003	1.5330320E-002	3.7765411E+001	7.367448115255680E-007
2.5104436E+002	5.5463291E+001	4.0417759E+001	6.8627777E+001	-3.6081944E+001	4.795091411753674E+001	3.2735822E+000	-6.0976890E-004	1.5685467E+001	5.4405403E+000	1.000000000000000E+000	11	1.2078086E-001	1.7599413E-003	-1.009112550825295E-005	-4.2104261E-004	1.1776216E-002	8.5816812E-003	1.4571359E-002	3.6081944E+001	-1.669269733273217E-006
2.2392513E+002	5.9385288E+001	4.0612808E+001	7.1944511E+001	-3.4367706E+001	4.871370706046582E+001	3.2735868E+000	-5.5246992E-004	1.7500654E+001	5.5767994E+000	1.000000000000000E+000	11	1.2069403E-001	1.6775989E-003	-1.170418576220335E-005	2.1982555E-004	1.1473172E-002	7.8463508E-003	1.3899601E-002	3.4367706E+001	-1.613060253950405E-006
1.9955299E+002	6.3368324E+001	4.0532719E+001	7.5222641E+001	-3.2604481E+001	4.947521429657354E+001	3.2735920E+000	-5.9969199E-004	1.9676876E+001	5.7130818E+000	1.000000000000000E+000	11	1.2063073E-001	1.6036493E-003	-1.311435162661494E-005	-7.4147672E-004	1.1198892E-002	7.1632243E-003	1.3293870E-002	3.2604481E+001	-1.410165864411586E-006
1.7778128E+002	6.7330994E+001	4.0155003E+001	7.8395706E+001	-3.0811096E+001	5.024224995970144E+001	3.2735860E+000	-5.9540226E-004	2.2294331E+001	5.8491020E+000	1.000000000000000E+000	11	1.2057324E-001	1.5380083E-003	-1.342412074339680E-005	-1.8071703E-004	1.0955457E-002	6.5336386E-003	1.2755801E-002	3.0811096E+001	-3.097691167818590E-007
1.5842838E+002	7.1204582E+001	3.9501568E+001	8.1427673E+001	-2.9019831E+001	5.100874199613463E+001	3.2735903E+000	-5.5527460E-004	2.5431551E+001	5.9849076E+000	1.000000000000000E+000	11	1.2052899E-001	1.4801970E-003	-1.464411696358972E-005	-2.0499996E-005	1.0739001E-002	5.9575853E-003	1.2280838E-002	2.9019831E+001	-1.219996220192922E-006
1.4131134E+002	7.4921936E+001	3.8582382E+001	8.4272751E+001	-2.7247007E+001	5.176190629857592E+001	3.2735875E+000	-6.8686344E-004	2.9191343E+001	6.1186810E+000	1.000000000000000E+000	11	1.2048995E-001	1.4297616E-003	-1.342350092871736E-005	-2.6082556E-004	1.0549567E-002	5.4326868E-003	1.1866231E-002	2.7247007E+001	1.220616034872364E-006
1.2584569E+002	7.8509163E+001	3.7427090E+001	8.6973991E+001	-2.5488192E+001	5.251740569443791E+001	3.2735958E+000	-5.1085453E-004	3.3790585E+001	6.2573299E+000	1.000000000000000E+000	11	1.2046313E-001	1.3850477E-003	-1.460758355532825E-005	-2.0499996E-005	1.0378666E-002	4.9477443E-003	1.1497690E-002	2.5488192E+001	-1.184082626610890E-006
1.1218996E+002	8.1854614E+001	3.6080322E+001	8.9453720E+001	-2.3787186E+001	5.326283479653648E+001	3.2735929E+000	-6.0175342E-004	3.9318394E+001	6.3964610E+000	1.000000000000000E+000	11	1.2043799E-001	1.3463721E-003	-1.571689756954503E-005	-1.8071703E-004	1.0229311E-002	4.5089307E-003	1.1178965E-002	2.3787186E+001	-1.109314014216784E-006
1.0003201E+002	8.4965248E+001	3.4585884E+001	9.1734818E+001	-2.2149233E+001	5.402271368596121E+001	3.2735927E+000	-7.7384460E-004	4.6002590E+001	6.5390043E+000	1.000000000000000E+000	11	1.2041530E-001	1.3126455E-003	-1.530170026849697E-005	-3.4093409E-004	1.0096548E-002	4.1098930E-003	1.0900986E-002	2.2149233E+001	4.151973010480633E-007
8.9115974E+001	8.7838631E+001	3.2976665E+001	9.3824760E+001	-2.0577305E+001	5.478873828233918E+001	3.2735870E+000	-6.3292932E-004	5.4157406E+001	6.6901579E+000	1.000000000000000E+000	11	1.2039626E-001	1.2832035E-003	-1.479467454172360E-005	-2.6082556E-004	9.9781640E-003	3.7460350E-003	1.0658167E-002	2.0577305E+001	5.070257267733613E-007
7.9415527E+001	9.0457367E+001	3.1307425E+001	9.5721939E+001	-1.9090811E+001	5.555322397194686E+001	3.2735810E+000	-5.5472553E-004	6.4012878E+001	6.8476110E+000	1.000000000000000E+000	11	1.2038323E-001	1.2576347E-003	-1.585381658082931E-005	5.9608523E-005	9.8723592E-003	3.4168377E-003	1.0446926E-002	1.9090811E+001	-1.059142039105710E-006
7.0838745E+001	9.2795265E+001	2.9634705E+001	9.7412407E+001	-1.7711182E+001	5.630439462096547E+001	3.2735722E+000	-6.9527491E-004	7.5813866E+001	7.0165129E+000	1.000000000000000E+000	11	1.2037185E-001	1.2356932E-003	-1.574932278804610E-005	-1.0060851E-004	9.7790631E-003	3.1230003E-003	1.0265633E-002	1.7711182E+001	1.044937927832107E-007
6.3082302E+001	9.4945107E+001	2.7942986E+001	9.8971634E+001	-1.6399511E+001	5.708485735137947E+001	3.2735829E+000	-4.6961851E-004	9.0290024E+001	7.1972060E+000	1.000000000000000E+000	11	1.2037089E-001	1.2162160E-003	-1.519447151288882E-005	-3.4093409E-004	9.6928421E-003	2.8526688E-003	1.0103906E-002	1.6399511E+001	5.548512751572872E-007
5.6241817E+001	9.6842758E+001	2.6306805E+001	1.0035222E+002	-1.5197360E+001	5.782935698670917E+001	3.2735868E+000	-4.6905916E-004	1.0757038E+002	7.3922210E+000	1.000000000000000E+000	11	1.2036035E-001	1.1993791E-003	-1.575021778713886E-005	-1.8071703E-004	9.6164150E-003	2.6122464E-003	9.9649020E-003	1.5197360E+001	-5.557462742500420E-007
5.0144413E+001	9.8543633E+001	2.4735924E+001	1.0160075E+002	-1.4090961E+001	5.858616851599072E+001	3.2735856E+000	-3.4867233E-004	1.2831264E+002	7.6055713E+000	1.000000000000000E+000	11	1.2035227E-001	1.1845608E-003	-1.624836963142217E-005	-1.0060851E-004	9.5462920E-003	2.3962620E-003	9.8424470E-003	1.4090961E+001	-4.981518442833096E-007
4.4671219E+001	1.0008035E+002	2.3243423E+001	1.0274401E+002	-1.3075015E+001	5.935024039229029E+001	3.2735806E+000	-4.3116981E-004	1.5328238E+002	7.8447552E+000	1.000000000000000E+000	11	1.2035231E-001	1.1713803E-003	-1.569575205481831E-005	2.1982555E-004	9.4805984E-003	2.2018468E-003	9.7329272E-003	1.3075015E+001	5.526175766038572E-007
3.9808922E+001	1.0144901E+002	2.1846537E+001	1.0377463E+002	-1.2152772E+001	6.011271933522221E+001	3.2735925E+000	-1.5474515E-004	1.8300255E+002	8.1103563E+000	1.000000000000000E+000	11	1.2034858E-001	1.1597110E-003	-1.694775296343465E-005	-3.4093409E-004	9.4203157E-003	2.0286178E-003	9.6362671E-003	1.2152772E+001	-1.252000908616336E-006
3.5465305E+001	1.0268958E+002	2.0544834E+001	1.0472459E+002	-1.1313643E+001	6.086211150410236E+001	3.2735901E+000	-6.9863623E-004	2.1843076E+002	8.4066257E+000	1.000000000000000E+000	11	1.2034816E-001	1.1491872E-003	-1.508273302281224E-005	2.9993406E-004	9.3633011E-003	1.8732910E-003	9.5488550E-003	1.1313643E+001	1.865019940622411E-006
3.1629551E+001	1.0379786E+002	1.9363760E+001	1.0558859E+002	-1.0567207E+001	6.158644033849123E+001	3.2735865E+000	-5.8048882E-004	2.5985880E+002	8.7394238E+000	1.000000000000000E+000	11	1.2033934E-001	1.1397002E-003	-1.569562567521482E-005	-1.0060851E-004	9.3101012E-003	1.7368235E-003	9.4707198E-003	1.0567207E+001	-6.128926524025792E-007
2.8170074E+001	1.0483158E+002	1.8269367E+001	1.0641161E+002	-9.8858528E+000	6.239075600341312E+001	3.2735882E+000	-1.2730998E-004	3.0924921E+002	9.1154404E+000	1.000000000000000E+000	11	1.2033985E-001	1.1308902E-003	-1.866892542814862E-005	5.9608523E-005	9.2579350E-003	1.6134129E-003	9.3974713E-003	9.8858528E+000	-2.973299752933802E-006
2.5104435E+001	1.0576337E+002	1.7280193E+001	1.0716573E+002	-9.2793055E+000	6.314691126599791E+001	3.2735884E+000	-7.4884424E-004	3.6687753E+002	9.5390787E+000	1.000000000000000E+000	11	1.2033615E-001	1.1228976E-003	-1.913949462196292E-005	-6.6136819E-004	9.2092315E-003	1.5046542E-003	9.3313409E-003	9.2793055E+000	-4.705691938142982E-007
2.2385387E+001	1.0662798E+002	1.6404058E+001	1.0788244E+002	-8.7460327E+000	6.383342873855145E+001	3.2735703E+000	-1.2746277E-003	4.3341528E+002	1.0020867E+001	1.000000000000000E+000	11	1.2033487E-001	1.1154260E-003	-1.600199196076978E-005	-2.6082556E-004	9.1615655E-003	1.4094504E-003	9.2693493E-003	8.7460327E+000	3.137502661193136E-006
1.9955299E+001	1.0744043E+002	1.5617832E+001	1.0856962E+002	-8.2707405E+000	6.459520440144115E+001	3.2735868E+000	-3.7779001E-004	5.1067093E+002	1.0567348E+001	1.000000000000000E+000	11	1.2033816E-001	1.1083963E-003	-1.573106530587150E-005	-4.2104261E-004	9.1148829E-003	1.3249641E-003	9.2106797E-003	8.2707405E+000	2.709266548982773E-007
1.7796129E+001	1.0820103E+002	1.4928600E+001	1.0922603E+002	-7.8555584E+000	6.543951681486215E+001	3.2735956E+000	-6.8611473E-005	5.9906714E+002	1.1190806E+001	1.000000000000000E+000	11	1.2033379E-001	1.1016952E-003	-1.523866647519430E-005	-1.0060851E-004	9.0694111E-003	1.2513153E-003	9.1553265E-003	7.8555584E+000	4.923988306772019E-007
1.5857576E+001	1.0891870E+002	1.4311383E+001	1.0985490E+002	-7.4855022E+000	6.616095668915659E+001	3.2735896E+000	-2.4191198E-004	7.0129657E+002	1.1902166E+001	1.000000000000000E+000	11	1.2033588E-001	1.0954074E-003	-2.014899202432813E-005	-5.8125966E-004	9.0253400E-003	1.1858853E-003	9.1029163E-003	7.4855022E+000	-4.910325549133833E-006
1.4118974E+001	1.0960677E+002	1.3790189E+001	1.1047086E+002	-7.1709967E+000	6.696326654058066E+001	3.2735906E+000	-6.4002792E-004	8.1742285E+002	1.2737720E+001	1.000000000000000E+000	11	1.2033135E-001	1.0892587E-003	-1.526125095264029E-005	-2.6082556E-004	8.9813545E-003	1.1299902E-003	9.0521602E-003	7.1709967E+000	4.887741071687844E-006
1.2600808E+001	1.1025467E+002	1.3351929E+001	1.1106019E+002	-6.9049416E+000	6.785384026290558E+001	3.2735956E+000	7.4488153E-006	9.4597083E+002	1.3672532E+001	1.000000000000000E+000	11	1.2033156E-001	1.0834807E-003	-1.503329506105446E-005	-2.0499996E-005	8.9388192E-003	1.0824982E-003	9.0041263E-003	6.9049416E+000	2.279558915858304E-007
1.1224856E+001	1.1087994E+002	1.2977745E+001	1.1163684E+002	-6.6757092E+000	6.853792141537997E+001	3.2735901E+000	-1.7789128E-004	1.0925469E+003	1.4764661E+001	1.000000000000000E+000	11	1.2033220E-001	1.0778897E-003	-1.698771775251953E-005	-1.0060851E-004	8.8968836E-003	1.0413199E-003	8.9576161E-003	6.6757092E+000	-1.954422691465072E-006
1.0003201E+001	1.1148056E+002	1.2689052E+001	1.1220039E+002	-6.4936309E+000	6.929869051819696E+001	3.2735763E+000	-2.8946462E-005	1.2538685E+003	1.6036943E+001	1.000000000000000E+000	11	1.2033278E-001	1.0724810E-003	-2.260228272668448E-005	-5.0115114E-004	8.8554462E-003	1.0079535E-003	8.9126257E-003	6.4936309E+000	-5.614564974164953E-006
8.9183798E+000	1.1207339E+002	1.2464286E+001	1.1276437E+002	-6.3460937E+000	7.014304978493601E+001	3.2735898E+000	-7.7180297E-004	1.4317485E+003	1.7492737E+001	1.000000000000000E+000	11	1.2033245E-001	1.0671141E-003	-1.364682312387352E-005	5.9608523E-005	8.8137090E-003	9.8022004E-004	8.8680489E-003	6.3460937E+000	8.955459602810960E-006
7.9395342E+000	1.1265289E+002	1.2325555E+001	1.1332516E+002	-6.2439976E+000	7.108168652289169E+001	3.2735910E+000	1.4118060E-004	1.6263673E+003	1.9238840E+001	1.000000000000000E+000	11	1.2033243E-001	1.0618332E-003	-2.310172300330467E-005	5.9608523E-005	8.7718181E-003	9.5974031E-004	8.8241650E-003	6.2439976E+000	-9.454899879431145E-006
7.0765405E+000	1.1317551E+002	1.2250727E+001	1.1383662E+002	-6.1779494E+000	7.164004286937416E+001	3.2735808E+000	-1.9697042E-003	1.8358503E+003	2.1261654E+001	1.000000000000000E+000	11	1.2033369E-001	1.0570737E-003	-2.240326939331135E-005	-5.0115114E-004	8.7335026E-003	9.4536139E-004	8.7845195E-003	6.1779494E+000	6.984536099933197E-007
6.3105822E+000	1.1373032E+002	1.2223418E+001	1.1438531E+002	-6.1344428E+000	7.226021007218515E+001	3.2735665E+000	-2.1096887E-003	2.0632793E+003	2.3561497E+001	1.000000000000000E+000	11	1.2033340E-001	1.0520006E-003	-1.815356431976478E-005	-2.0499996E-005	8.6923223E-003	9.3422655E-004	8.7423818E-003	6.1344428E+000	4.249705073546568E-006
5.6205034E+000	1.1426194E+002	1.2320269E+001	1.1492423E+002	-6.1541290E+000	7.294565170475835E+001	3.2735746E+000	-1.2093037E-003	2.2983955E+003	2.6414469E+001	1.000000000000000E+000	11	1.2032618E-001	1.0470045E-003	-1.079473939495316E-005	-2.0499996E-005	8.6512398E-003	9.3281810E-004	8.7013850E-003	6.1541290E+000	7.358824924811616E-006
5.0144415E+000	1.1479288E+002	1.2482495E+001	1.1546956E+002	-6.2059183E+000	7.370319654067862E+001	3.2735770E+000	3.5629238E-004	2.5427061E+003	2.9714195E+001	1.000000000000000E+000	11	1.2032813E-001	1.0420766E-003	-9.078108184702513E-006	-1.8071703E-004	8.6095408E-003	9.3619520E-004	8.6602913E-003	6.2059183E+000	1.716631210250652E-006
4.4693937E+000	1.1530591E+002	1.2734235E+001	1.1600695E+002	-6.3021326E+000	7.454449028728413E+001	3.2735965E+000	1.3417875E-003	2.7963960E+003	3.3695843E+001	1.000000000000000E+000	11	1.2033105E-001	1.0372745E-003	-2.218474084728708E-005	-1.0060851E-004	8.5680801E-003	9.4624766E-004	8.6201727E-003	6.3021326E+000	-1.310663266258457E-005
3.9778514E+000	1.1587460E+002	1.3067518E+001	1.1660910E+002	-6.4342284E+000	7.548118742511724E+001	3.2735860E+000	-6.8165269E-004	3.0618115E+003	3.8450306E+001	1.000000000000000E+000	11	1.2032682E-001	1.0318819E-003	-2.800279070487725E-005	1.3971704E-004	8.5216435E-003	9.6101069E-004	8.5756602E-003	6.4342284E+000	-5.818049857590168E-006
3.5511365E+000	1.1636032E+002	1.3475116E+001	1.1713796E+002	-6.6057177E+000	7.652238126125303E+001	3.2735879E+000	-1.8607966E-003	3.3259849E+003	4.4013908E+001	1.000000000000000E+000	11	1.2032863E-001	1.0272386E-003	-7.759799605636444E-006	-2.6082556E-004	8.4802676E-003	9.8205812E-004	8.5369423E-003	6.6057177E+000	2.024299109924080E-005
3.1603966E+000	1.1695774E+002	1.3967960E+001	1.1778886E+002	-6.8104300E+000	7.768424915647483E+001	3.2735896E+000	4.5119959E-004	3.6053345E+003	5.0699432E+001	1.000000000000000E+000	11	1.2032903E-001	1.0215654E-003	-1.393896571517042E-005	2.1982555E-004	8.4298626E-003	1.0067567E-003	8.4897671E-003	6.8104300E+000	-6.179166109533981E-006
2.8183618E+000	1.1752229E+002	1.4616932E+001	1.1842780E+002	-7.0898013E+000	7.897971127135679E+001	3.2735882E+000	4.6164880E-004	3.8633774E+003	5.8853500E+001	1.000000000000000E+000	11	1.2032994E-001	1.0160616E-003	-3.362423318727007E-005	-3.4093409E-004	8.3794007E-003	1.0421949E-003	8.4439637E-003	7.0898013E+000	-1.968526747209964E-005
2.5136740E+000	1.1806091E+002	1.5296280E+001	1.1904769E+002	-7.3822675E+000	8.042367453993938E+001	3.2735841E+000	-1.2761597E-003	4.1392852E+003	6.8336861E+001	1.000000000000000E+000	11	1.2032955E-001	1.0107676E-003	-2.133557202452923E-006	2.1982555E-004	8.3303675E-003	1.0793043E-003	8.3999950E-003	7.3822675E+000	3.149067598481715E-005
2.2398219E+000	1.1869048E+002	1.6097231E+001	1.1977708E+002	-7.7235351E+000	8.203840989657328E+001	3.2735918E+000	1.1877092E-003	4.4142349E+003	7.9727898E+001	1.000000000000000E+000	11	1.2032779E-001	1.0045978E-003	-2.412508619394955E-005	-5.0115114E-004	8.2731023E-003	1.1220279E-003	8.3488422E-003	7.7235351E+000	-2.199152899149663E-005
1.9970604E+000	1.1935709E+002	1.7056608E+001	1.2056966E+002	-8.1327343E+000	8.384169555562403E+001	3.2735910E+000	-5.1903835E-004	4.6723594E+003	9.3507294E+001	1.000000000000000E+000	11	1.2032964E-001	9.9800923E-004	-2.654547526426743E-005	-1.8071703E-004	8.2105482E-003	1.1733202E-003	8.2939602E-003	8.1327343E+000	-2.420389070317871E-006
1.7796129E+000	1.2000270E+002	1.8167107E+001	1.2137006E+002	-8.6085901E+000	8.585992933146190E+001	3.2735960E+000	-4.1050292E-004	4.9227617E+003	1.1029535E+002	1.000000000000000E+000	11	1.2033013E-001	9.9143165E-004	2.800167545087687E-006	-4.2104261E-004	8.1464397E-003	1.2332825E-003	8.2392637E-003	8.6085901E+000	2.934564280935511E-005
1.5846854E+000	1.2068608E+002	1.9391628E+001	1.2223406E+002	-9.1281633E+000	8.811908631876577E+001	3.2735908E+000	8.0158154E-004	5.1792012E+003	1.3034875E+002	1.000000000000000E+000	11	1.2032955E-001	9.8441914E-004	-4.574717858262132E-005	-2.0499996E-005	8.0774203E-003	1.2978656E-003	8.1810253E-003	9.1281633E+000	-4.854734612770901E-005
1.4122382E+000	1.2141393E+002	2.0716131E+001	1.2316858E+002	-9.6827908E+000	9.064818675888819E+001	3.2735903E+000	-8.8354910E-004	5.4400576E+003	1.5389374E+002	1.000000000000000E+000	11	1.2032825E-001	9.7693945E-004	1.057376165844552E-005	-1.0060851E-004	8.0032907E-003	1.3655537E-003	8.1189536E-003	9.6827908E+000	5.632094024106684E-005
1.2596743E+000	1.2224624E+002	2.2213198E+001	1.2424802E+002	-1.0298771E+001	9.347589099986362E+001	3.2735910E+000	9.2932238E-004	5.6878843E+003	1.8180005E+002	1.000000000000000E+000	11	1.2032869E-001	9.6845563E-004	-4.157552003186558E-005	-3.4093409E-004	7.9187490E-003	1.4389051E-003	8.0484180E-003	1.0298771E+001	-5.214928169031110E-005
1.1224856E+000	1.2312351E+002	2.3906893E+001	1.2542304E+002	-1.0988389E+001	9.664307976362761E+001	3.2735920E+000	-5.8870408E-004	5.9308398E+003	2.1548041E+002	1.000000000000000E+000	11	1.2032899E-001	9.5938501E-004	-2.853113681498346E-006	2.1982555E-004	7.8268377E-003	1.5197372E-003	7.9730162E-003	1.0988389E+001	3.872240635036723E-005
1.0000638E+000	1.2410457E+002	2.5828163E+001	1.2676371E+002	-1.1756362E+001	1.001911698521290E+002	3.2735941E+000	5.9217762E-004	6.1616768E+003	2.5579736E+002	1.000000000000000E+000	11	1.2032839E-001	9.4923371E-004	-2.020409988791734E-005	-3.4093409E-004	7.7232113E-003	1.6073249E-003	7.8886934E-003	1.1756362E+001	-1.735098620641899E-005