EC-Lab ASCII FILE
Nb header lines : 60                          

Potentio Electrochemical Impedance Spectroscopy

Run on channel : 11 (SN 41750)
User : 
CE vs. WE compliance from -10 V to 10 V
Electrode connection : standard
Ewe ctrl range : min = -5.00 V, max = 5.00 V
Acquisition started on : 12/03/2020 16:52:56
Technique started on : 12/03/2020 16:52:57
Saved on :
	File : DE_206_11_30.mpr
	Directory : P:\Chemistry\Data\VMP3\Kyler\DOE\DE_206\
	Host : 10.0.4.64
Device : VMP3 (SN 1432)
Address : USB
EC-Lab for windows v11.33 (software)
Internet server v11.32 (firmware)
Command interpretor v11.33 (firmware)
Electrode material : 
Initial state : 
Electrolyte : 
Comments : 
Electrode surface area : 0.001 cm²
Characteristic mass : 0.001 g
Equivalent Weight : 0.000 g/eq.
Density : 0.000 g/cm3
Record Analogic IN 1
Cycle Definition : Charge/Discharge alternance
Mode                Single sine         
E (V)               0.0000              
vs.                 Eoc                 
tE (h:m:s)          0:00:0.0000         
record              0                   
dI                  1.000               
unit dI             mA                  
dt (s)              0.000               
fi                  1.000               
unit fi             MHz                 
ff                  1.000               
unit ff             Hz                  
Nd                  20                  
Points              per decade          
spacing             Logarithmic         
Va (mV)             128.0               
pw                  0.50                
Na                  3                   
corr                0                   
E range min (V)     -5.000              
E range max (V)     5.000               
I Range             Auto                
Bandwidth           5                   
nc cycles           0                   
goto Ns'            0                   
nr cycles           0                   
inc. cycle          1                   

freq/Hz	Re(Z)/Ohm	-Im(Z)/Ohm	|Z|/Ohm	Phase(Z)/deg	time/s	<Ewe>/V	<I>/mA	Cs/µF	Cp/µF	cycle number	I Range	|Ewe|/V	|I|/A	(Q-Qo)/mA.h	Analog IN 1/V	Re(Y)/Ohm-1	Im(Y)/Ohm-1	|Y|/Ohm-1	Phase(Y)/deg	dq/mA.h	
1.0000186E+006	8.2969757E+001	3.4684513E+001	8.9927727E+001	-2.2686781E+001	1.645484131440753E+000	3.3077016E+000	2.1545666E-003	4.5885607E-003	6.8259082E-004	1.000000000000000E+000	11	4.9237325E-004	5.4752109E-006	7.459362470449883E-007	7.8130380E-004	1.0259651E-002	4.2889239E-003	1.1120041E-002	2.2686781E+001	7.459362470449883E-007
8.9124669E+005	8.2014725E+001	3.1639816E+001	8.7906158E+001	-2.1095724E+001	2.241490053100279E+000	3.3070300E+000	-1.1042723E-004	5.6440164E-003	7.3116866E-004	1.000000000000000E+000	11	1.6641650E-004	1.8931154E-006	7.925566665572761E-007	1.1018084E-003	1.0613368E-002	4.0944479E-003	1.1375767E-002	2.1095724E+001	4.662041951228782E-008
7.9433269E+005	8.8581985E+001	3.0940044E+001	9.3829926E+001	-1.9253361E+001	2.837475841428386E+000	3.3066392E+000	-1.1515934E-003	6.4758495E-003	7.0413493E-004	1.000000000000000E+000	11	5.7459611E-004	6.1238043E-006	6.255414888257494E-007	3.8067301E-004	1.0061499E-002	3.5142947E-003	1.0657581E-002	1.9253361E+001	-1.670151777315267E-007
7.0794981E+005	9.1874199E+001	2.9578564E+001	9.6518181E+001	-1.7845776E+001	3.432474216358969E+000	3.3064153E+000	-1.5335028E-003	7.6004723E-003	7.1379991E-004	1.000000000000000E+000	11	1.8806452E-003	1.9484880E-005	3.280906895190835E-007	2.2042071E-004	9.8622330E-003	3.1751106E-003	1.0360742E-002	1.7845776E+001	-2.974507993066658E-007
6.3095681E+005	9.5001862E+001	2.8454988E+001	9.9171768E+001	-1.6674026E+001	4.029497604671633E+000	3.3062840E+000	-1.7823312E-003	8.8646607E-003	7.2979822E-004	1.000000000000000E+000	11	3.8843902E-003	3.9168306E-005	7.214365274949665E-008	8.6142996E-004	9.6595306E-003	2.8932255E-003	1.0083515E-002	1.6674026E+001	-2.559470367695869E-007
5.6234225E+005	9.7795471E+001	2.7719002E+001	1.0164791E+002	-1.5824771E+001	4.625479286332848E+000	3.3061931E+000	-1.9191396E-003	1.0210379E-002	7.5927674E-004	1.000000000000000E+000	11	6.6835992E-003	6.5752451E-005	-3.505339193644533E-007	7.0117763E-004	9.4650267E-003	2.6827529E-003	9.8378807E-003	1.5824771E+001	-4.226775721139499E-007
5.0120619E+005	1.0049657E+002	2.7013437E+001	1.0406386E+002	-1.5045450E+001	5.222490648011444E+000	3.3061507E+000	-1.9258478E-003	1.1755033E-002	7.9210679E-004	1.000000000000000E+000	11	1.0366381E-002	9.9615572E-005	-6.130709173804562E-007	6.0168401E-005	9.2800735E-003	2.4944798E-003	9.6094841E-003	1.5045450E+001	-2.625369980160030E-007
4.4668572E+005	1.0301842E+002	2.6243181E+001	1.0630852E+002	-1.4291703E+001	5.817473636270734E+000	3.3060997E+000	-2.0632152E-003	1.3576929E-002	8.2736742E-004	1.000000000000000E+000	11	1.4944990E-002	1.4058131E-004	-9.320288483949197E-007	6.2105147E-004	9.1154650E-003	2.3220971E-003	9.4065843E-003	1.4291703E+001	-3.189579310144634E-007
3.9810347E+005	1.0529152E+002	2.5482286E+001	1.0833121E+002	-1.3604928E+001	6.413489424594445E+000	3.3060839E+000	-1.9640562E-003	1.5688658E-002	8.6807134E-004	1.000000000000000E+000	11	2.0449053E-002	1.8876420E-004	-1.544078679787668E-006	6.2105147E-004	8.9719379E-003	2.1713569E-003	9.2309508E-003	1.3604928E+001	-6.120498313927479E-007
3.5480997E+005	1.0740398E+002	2.4561987E+001	1.1017670E+002	-1.2881342E+001	7.009479479544098E+000	3.3060548E+000	-2.0702949E-003	1.8262526E-002	9.0762880E-004	1.000000000000000E+000	11	2.6909014E-002	2.4423507E-004	-2.160354707797524E-006	7.0117763E-004	8.8479128E-003	2.0234103E-003	9.0763289E-003	1.2881342E+001	-6.162760280098561E-007
3.1622997E+005	1.0932357E+002	2.3673536E+001	1.1185741E+002	-1.2218496E+001	7.604488681157818E+000	3.3060143E+000	-2.1506262E-003	2.1259544E-002	9.5224951E-004	1.000000000000000E+000	11	3.4394301E-002	3.0748345E-004	-3.074441801507621E-006	1.2620607E-003	8.7374421E-003	1.8920546E-003	8.9399535E-003	1.2218496E+001	-9.140870937100973E-007
2.8183453E+005	1.1115903E+002	2.2829496E+001	1.1347915E+002	-1.1605847E+001	8.200477642792976E+000	3.3059547E+000	-2.2067281E-003	2.4736006E-002	1.0011292E-003	1.000000000000000E+000	11	4.2891089E-002	3.7796449E-004	-3.815611646269746E-006	6.2105147E-004	8.6320238E-003	1.7728182E-003	8.8121919E-003	1.1605847E+001	-7.411698447621248E-007
2.5118764E+005	1.1281030E+002	2.1910580E+001	1.1491839E+002	-1.0991426E+001	8.796488577761920E+000	3.3058932E+000	-2.3903192E-003	2.8917983E-002	1.0512274E-003	1.000000000000000E+000	11	5.2473933E-002	4.5661911E-004	-3.433612184915546E-006	1.0216822E-003	8.5421987E-003	1.6591086E-003	8.7018274E-003	1.0991426E+001	3.819994613541995E-007
2.2387173E+005	1.1439240E+002	2.1036024E+001	1.1631051E+002	-1.0419909E+001	9.392471912753535E+000	3.3059363E+000	-1.8445738E-003	3.3795368E-002	1.1054691E-003	1.000000000000000E+000	11	6.3115336E-002	5.4264517E-004	-3.590180888623258E-006	9.4155606E-004	8.4558884E-003	1.5549834E-003	8.5976757E-003	1.0419909E+001	-1.565687037077117E-007
1.9954350E+005	1.1582407E+002	2.0218262E+001	1.1757549E+002	-9.9017878E+000	9.988481354404939E+000	3.3058789E+000	-2.1450270E-003	3.9449252E-002	1.1665217E-003	1.000000000000000E+000	11	7.4788123E-002	6.3608604E-004	-3.369585510414456E-006	7.0117763E-004	8.3784806E-003	1.4625484E-003	8.5051740E-003	9.9017878E+000	2.205953782088021E-007
1.7783180E+005	1.1719170E+002	1.9392729E+001	1.1878540E+002	-9.3960838E+000	1.058348247598042E+001	3.3058596E+000	-2.2087677E-003	4.6150010E-002	1.2300521E-003	1.000000000000000E+000	11	8.7494113E-002	7.3657295E-004	-2.254256459202022E-006	8.6142996E-004	8.3055943E-003	1.3743989E-003	8.4185433E-003	9.3960838E+000	1.115329051212434E-006
1.5848613E+005	1.1848105E+002	1.8609905E+001	1.1993368E+002	-8.9265575E+000	1.117847893093131E+001	3.3058281E+000	-2.3422204E-003	5.3961590E-002	1.2992441E-003	1.000000000000000E+000	11	1.0115188E-001	8.4339845E-004	-3.539707262327687E-006	5.4092531E-004	8.2369531E-003	1.2937844E-003	8.3379420E-003	8.9265575E+000	-1.285450803125665E-006
1.4125594E+005	1.1968443E+002	1.7860176E+001	1.2100970E+002	-8.4874582E+000	1.163747775272350E+001	3.3058658E+000	-2.0331906E-003	6.3085228E-002	1.3742278E-003	1.000000000000000E+000	11	1.1580039E-001	9.5695123E-004	-4.399879562351594E-006	4.6079917E-004	8.1732972E-003	1.2196784E-003	8.2638003E-003	8.4874582E+000	-8.601723000239068E-007
1.2590930E+005	1.2083363E+002	1.7140081E+001	1.2204322E+002	-8.0734653E+000	1.209749020126765E+001	3.3058484E+000	-2.1250765E-003	7.3747866E-002	1.4546145E-003	1.000000000000000E+000	11	1.3156042E-001	1.0779821E-003	-3.896492164161626E-006	5.4092531E-004	8.1126085E-003	1.1507622E-003	8.1938189E-003	8.0734653E+000	5.033873981899687E-007
1.1220494E+005	1.2193483E+002	1.6450541E+001	1.2303952E+002	-7.6835275E+000	1.269348577622441E+001	3.3058584E+000	-2.0685995E-003	8.6223960E-002	1.5413422E-003	1.000000000000000E+000	11	1.2984404E-001	1.0553035E-003	-2.215598189998774E-006	3.8067301E-004	8.0544986E-003	1.0866530E-003	8.1274696E-003	7.6835275E+000	1.680893974162852E-006
1.0000371E+005	1.2296677E+002	1.5809194E+001	1.2397886E+002	-7.3260312E+000	1.328847767112893E+001	3.3059134E+000	-1.8458639E-003	1.0066865E-001	1.6368860E-003	1.000000000000000E+000	11	1.2970221E-001	1.0461640E-003	-2.234603671243854E-006	4.6079917E-004	8.0000460E-003	1.0285241E-003	8.0658915E-003	7.3260312E+000	-1.900548124508012E-008
8.9129305E+004	1.2394400E+002	1.5195250E+001	1.2487198E+002	-6.9894524E+000	1.388447961947531E+001	3.3059027E+000	-2.0216326E-003	1.1751459E-001	1.7401130E-003	1.000000000000000E+000	11	1.2967028E-001	1.0384257E-003	-2.034740813024756E-006	5.4092531E-004	7.9486892E-003	9.7449101E-004	8.0082016E-003	6.9894524E+000	1.998628582190979E-007
7.9433273E+004	1.2486983E+002	1.4619320E+001	1.2572270E+002	-6.6775894E+000	1.447949234102271E+001	3.3059201E+000	-2.0059773E-003	1.3705362E-001	1.8531793E-003	1.000000000000000E+000	11	1.2968898E-001	1.0315478E-003	-3.414298801107280E-006	1.0216822E-003	7.9000546E-003	9.2491059E-004	7.9540126E-003	6.6775894E+000	-1.379557988082524E-006
7.0794977E+004	1.2574585E+002	1.4083117E+001	1.2653202E+002	-6.3903069E+000	1.507449666262255E+001	3.3059573E+000	-1.7109218E-003	1.5963161E-001	1.9774958E-003	1.000000000000000E+000	11	1.2955120E-001	1.0238610E-003	-3.115724652960327E-006	5.4092531E-004	7.8540342E-003	8.7962567E-004	7.9031382E-003	6.3903069E+000	2.985741481469532E-007
6.3093828E+004	1.2657390E+002	1.3589707E+001	1.2730135E+002	-6.1281314E+000	1.567047786430339E+001	3.3059747E+000	-1.6812853E-003	1.8561931E-001	2.1153262E-003	1.000000000000000E+000	11	1.2947387E-001	1.0170660E-003	-2.898623939972216E-006	1.4029455E-004	7.8104879E-003	8.3857920E-004	7.8553762E-003	6.1281314E+000	2.171007129881114E-007
5.6237012E+004	1.2736470E+002	1.3144778E+001	1.2804121E+002	-5.8923960E+000	1.626648247925914E+001	3.3059695E+000	-1.8125020E-003	2.1530031E-001	2.2690895E-003	1.000000000000000E+000	11	1.2932780E-001	1.0100482E-003	-1.347528055116224E-006	4.6079917E-004	7.7687209E-003	8.0177718E-004	7.8099854E-003	5.8923960E+000	1.551095884855992E-006
5.0122477E+004	1.2810181E+002	1.2727096E+001	1.2873248E+002	-5.6737976E+000	1.672547799439053E+001	3.3059788E+000	-1.6917230E-003	2.4949296E-001	2.4386002E-003	1.000000000000000E+000	11	1.4060195E-001	1.0922026E-003	-2.050064136972651E-006	8.6142996E-004	7.7299904E-003	7.6798553E-004	7.7680470E-003	5.6737976E+000	-7.025360818564271E-007
4.4666715E+004	1.2880537E+002	1.2369973E+001	1.2939799E+002	-5.4856429E+000	1.732049484932213E+001	3.3059988E+000	-1.7234075E-003	2.8804967E-001	2.6323872E-003	1.000000000000000E+000	11	1.3038479E-001	1.0076261E-003	-1.018317052641780E-006	7.0117763E-004	7.6927021E-003	7.3877751E-004	7.7280952E-003	5.4856429E+000	1.031747084330871E-006
3.9814063E+004	1.2948611E+002	1.2057805E+001	1.3004631E+002	-5.3200669E+000	1.778049393781112E+001	3.3060400E+000	-1.3927519E-003	3.3152431E-001	2.8500720E-003	1.000000000000000E+000	11	1.3983996E-001	1.0753090E-003	-1.692545017942191E-006	8.6142996E-004	7.6564439E-003	7.1297155E-004	7.6895682E-003	5.3200669E+000	-6.742279653004112E-007
3.5480996E+004	1.3013072E+002	1.1796106E+001	1.3066428E+002	-5.1795988E+000	1.837547591273324E+001	3.3060427E+000	-1.4635881E-003	3.8026437E-001	3.0991978E-003	1.000000000000000E+000	11	1.3003826E-001	9.9520897E-004	-3.694122433662414E-006	7.8130380E-004	7.6219505E-003	6.9091551E-004	7.6532015E-003	5.1795988E+000	-2.001577415720223E-006
3.1621143E+004	1.3075159E+002	1.1586053E+001	1.3126392E+002	-5.0638208E+000	1.883449438787648E+001	3.3060193E+000	-1.7180063E-003	4.3441722E-001	3.3844442E-003	1.000000000000000E+000	11	1.3752981E-001	1.0477351E-003	-3.111328373415745E-006	1.4029455E-004	7.5885062E-003	6.7242648E-004	7.6182401E-003	5.0638208E+000	5.827940602466693E-007
2.8188096E+004	1.3136122E+002	1.1436567E+001	1.3185812E+002	-4.9757371E+000	1.942948060281924E+001	3.3060210E+000	-1.6658172E-003	4.9369496E-001	3.7139521E-003	1.000000000000000E+000	11	1.2966408E-001	9.8336057E-004	-2.077123476128489E-006	5.4092531E-004	7.5553288E-003	6.5778184E-004	7.5839087E-003	4.9757371E+000	1.034204897287256E-006
2.5116910E+004	1.3195146E+002	1.1333231E+001	1.3243727E+002	-4.9090519E+000	1.988949686466367E+001	3.3060296E+000	-1.5990859E-003	5.5911374E-001	4.0943711E-003	1.000000000000000E+000	11	1.3530752E-001	1.0216725E-003	-1.661713183052295E-006	9.4155606E-004	7.5230468E-003	6.4614991E-004	7.5507443E-003	4.9090519E+000	4.154102930761940E-007
2.2389027E+004	1.3252405E+002	1.1293475E+001	1.3300438E+002	-4.8708811E+000	2.034849392648903E+001	3.3060346E+000	-1.6320798E-003	6.2944430E-001	4.5381687E-003	1.000000000000000E+000	11	1.4030346E-001	1.0548786E-003	-1.924195940227946E-006	3.0054685E-004	7.4913967E-003	6.3840416E-004	7.5185494E-003	4.8708811E+000	-2.624827571756516E-007
1.9948783E+004	1.3310674E+002	1.1301105E+001	1.3358562E+002	-4.8529215E+000	2.094447387478431E+001	3.3060367E+000	-1.6790489E-003	7.0596439E-001	5.0524878E-003	1.000000000000000E+000	11	1.2970708E-001	9.7096589E-004	-4.027416796132457E-006	5.4092531E-004	7.4590002E-003	6.3328841E-004	7.4858358E-003	4.8529215E+000	-2.103220855904510E-006
1.7786895E+004	1.3367928E+002	1.1375395E+001	1.3416240E+002	-4.8638487E+000	2.140449869664735E+001	3.3060460E+000	-1.6559395E-003	7.8659922E-001	5.6548989E-003	1.000000000000000E+000	11	1.3304178E-001	9.9164736E-004	-4.530759811653600E-006	3.8067301E-004	7.4268123E-003	6.3198223E-004	7.4536530E-003	4.8638487E+000	-5.033430155211436E-007
1.5847686E+004	1.3425920E+002	1.1511939E+001	1.3475183E+002	-4.9007907E+000	2.186347826509154E+001	3.3060427E+000	-1.7185619E-003	8.7238020E-001	6.3669789E-003	1.000000000000000E+000	11	1.3588193E-001	1.0083865E-003	-5.027377492905442E-006	5.4092531E-004	7.3939189E-003	6.3398521E-004	7.4210493E-003	4.9007907E+000	-4.966176812518421E-007
1.4121879E+004	1.3486583E+002	1.1701711E+001	1.3537253E+002	-4.9588823E+000	2.232348559363163E+001	3.3060362E+000	-1.7267623E-003	9.6311527E-001	7.1964106E-003	1.000000000000000E+000	11	1.3825597E-001	1.0213001E-003	-4.994107628018052E-006	3.0054685E-004	7.3593734E-003	6.3854025E-004	7.3870230E-003	4.9588823E+000	3.326986488738995E-008
1.2590932E+004	1.3546237E+002	1.1960039E+001	1.3598932E+002	-5.0455894E+000	2.278348638876923E+001	3.3060434E+000	-1.6236922E-003	1.0568897E+000	8.1749531E-003	1.000000000000000E+000	11	1.4018095E-001	1.0308232E-003	-5.756244858854593E-006	4.6079917E-004	7.3250239E-003	6.4673001E-004	7.3535186E-003	5.0455894E+000	-7.621372308365404E-007
1.1217711E+004	1.3611740E+002	1.2273350E+001	1.3666960E+002	-5.1522779E+000	2.337947847045143E+001	3.3060460E+000	-1.7327289E-003	1.1559865E+000	9.3225595E-003	1.000000000000000E+000	11	1.2933820E-001	9.4635674E-004	-7.094049484692126E-006	1.0216822E-003	7.2873523E-003	6.5708155E-004	7.3169162E-003	5.1522779E+000	-1.337804625837533E-006
1.0002229E+004	1.3677551E+002	1.2648799E+001	1.3735915E+002	-5.2836013E+000	2.383848057224532E+001	3.3060536E+000	-1.7265780E-003	1.2579808E+000	1.0667372E-002	1.000000000000000E+000	11	1.3048729E-001	9.4997161E-004	-6.729634701077279E-006	7.0117763E-004	7.2492519E-003	6.7040016E-004	7.2801849E-003	5.2836013E+000	3.644147836148470E-007
8.9149297E+003	1.3747958E+002	1.3081695E+001	1.3810057E+002	-5.4355412E+000	2.432092203520006E+001	3.3060756E+000	-1.5150275E-003	1.3647032E+000	1.2245464E-002	1.000000000000000E+000	11	1.3142565E-001	9.5166621E-004	-7.263619137999033E-006	7.0117763E-004	7.2085392E-003	6.8591931E-004	7.2410996E-003	5.4355412E+000	-5.339844369217541E-007
7.9439976E+003	1.3821271E+002	1.3577263E+001	1.3887799E+002	-5.6104240E+000	2.484699318016646E+001	3.3060877E+000	-1.5545414E-003	1.4756005E+000	1.4103483E-002	1.000000000000000E+000	11	1.3215974E-001	9.5162477E-004	-6.616213220981687E-006	1.1819345E-003	7.1660718E-003	7.0395577E-004	7.2005652E-003	5.6104240E+000	6.474059170173457E-007
7.0822334E+003	1.3901508E+002	1.4140676E+001	1.3973242E+002	-5.8081746E+000	2.542385584756266E+001	3.3060780E+000	-1.5575234E-003	1.5892043E+000	1.6275175E-002	1.000000000000000E+000	11	1.3273615E-001	9.4993087E-004	-6.155385914252191E-006	8.6142996E-004	7.1197953E-003	7.2422874E-004	7.1565351E-003	5.8081746E+000	4.608273067294957E-007
6.3077344E+003	1.3986929E+002	1.4758908E+001	1.4064581E+002	-6.0235200E+000	2.605855217101634E+001	3.3060918E+000	-1.6665610E-003	1.7095921E+000	1.8825537E-002	1.000000000000000E+000	11	1.3320106E-001	9.4706734E-004	-6.647228567149593E-006	1.1018084E-003	7.0708035E-003	7.4610615E-004	7.1100588E-003	6.0235200E+000	-4.918426528974020E-007
5.6210552E+003	1.4079814E+002	1.5416012E+001	1.4163957E+002	-6.2484350E+000	2.675926545765833E+001	3.3061249E+000	-1.4056173E-003	1.8366661E+000	2.1757305E-002	1.000000000000000E+000	11	1.3355060E-001	9.4289047E-004	-6.300624232047186E-006	8.6142996E-004	7.0182318E-003	7.6842739E-004	7.0601739E-003	6.2484350E+000	3.466043351024075E-007
5.0116035E+003	1.4179221E+002	1.6123587E+001	1.4270599E+002	-6.4873962E+000	2.751968685380416E+001	3.3061316E+000	-1.4002118E-003	1.9696169E+000	2.5143206E-002	1.000000000000000E+000	11	1.3381587E-001	9.3770324E-004	-6.604298524474466E-006	6.2105147E-004	6.9625438E-003	7.9173018E-004	7.0074140E-003	6.4873962E+000	-3.036742924272803E-007
4.4664292E+003	1.4287321E+002	1.6884096E+001	1.4386740E+002	-6.7396917E+000	2.827868355652026E+001	3.3061121E+000	-1.4820368E-003	2.1104829E+000	2.9067835E-002	1.000000000000000E+000	11	1.3402595E-001	9.3159353E-004	-7.614070584971665E-006	8.6142996E-004	6.9028116E-003	8.1574236E-004	6.9508450E-003	6.7396917E+000	-1.009772060497199E-006
3.9812742E+003	1.4403709E+002	1.7679291E+001	1.4511803E+002	-6.9975543E+000	2.903768143257184E+001	3.3061371E+000	-1.3524964E-003	2.2611699E+000	3.3559859E-002	1.000000000000000E+000	11	1.3417645E-001	9.2460221E-004	-7.319289233362522E-006	7.8130380E-004	6.8396148E-003	8.3950273E-004	6.8909428E-003	6.9975543E+000	2.947813516091428E-007
3.5465955E+003	1.4531233E+002	1.8501345E+001	1.4648540E+002	-7.2559295E+000	2.979794045531889E+001	3.3061335E+000	-1.3903336E-003	2.4255219E+000	3.8692173E-002	1.000000000000000E+000	11	1.3428482E-001	9.1671135E-004	-7.193238670405763E-006	1.1018084E-003	6.7719510E-003	8.6221314E-004	6.8266192E-003	7.2559295E+000	1.260505629567588E-007
3.1610112E+003	1.4668456E+002	1.9339970E+001	1.4795403E+002	-7.5109739E+000	3.055770662477153E+001	3.3061388E+000	-1.3357216E-003	2.6033845E+000	4.4483230E-002	1.000000000000000E+000	11	1.3436738E-001	9.0816984E-004	-6.887973267229325E-006	5.4092531E-004	6.7008641E-003	8.8349119E-004	6.7588561E-003	7.5109739E+000	3.052654031764381E-007
2.8172952E+003	1.4814757E+002	2.0201351E+001	1.4951855E+002	-7.7649417E+000	3.131792314085760E+001	3.3061373E+000	-1.3584617E-003	2.7964520E+000	5.1047914E-002	1.000000000000000E+000	11	1.3441065E-001	8.9895632E-004	-6.575656517496100E-006	8.6142996E-004	6.6268076E-003	9.0362917E-004	6.6881333E-003	7.7649417E+000	3.123167497332256E-007
2.5108032E+003	1.4975500E+002	2.1019825E+001	1.5122299E+002	-7.9899197E+000	3.207767579030042E+001	3.3061385E+000	-1.3510057E-003	3.0156322E+000	5.8264080E-002	1.000000000000000E+000	11	1.3444793E-001	8.8907074E-004	-7.137269563568730E-006	1.1819345E-003	6.5485584E-003	9.1916497E-004	6.6127512E-003	7.9899197E+000	-5.616130460726305E-007
2.2378516E+003	1.5144388E+002	2.1847013E+001	1.5301157E+002	-8.2087536E+000	3.283793062638142E+001	3.3061323E+000	-1.3864196E-003	3.2553434E+000	6.6363975E-002	1.000000000000000E+000	11	1.3446018E-001	8.7875832E-004	-8.174567527881461E-006	2.2042071E-004	6.4684944E-003	9.3313307E-004	6.5354537E-003	8.2087536E+000	-1.037297964312731E-006
1.9956389E+003	1.5325050E+002	2.2613461E+001	1.5490993E+002	-8.3939247E+000	3.359767090249079E+001	3.3061385E+000	-1.3530576E-003	3.5267212E+000	7.5153068E-002	1.000000000000000E+000	11	1.3446574E-001	8.6802529E-004	-7.898875054638160E-006	7.8130380E-004	6.3862130E-003	9.4234198E-004	6.4553642E-003	8.3939247E+000	2.756924732433008E-007
1.7782927E+003	1.5517987E+002	2.3351009E+001	1.5692693E+002	-8.5574951E+000	3.435794499190524E+001	3.3061407E+000	-1.4106511E-003	3.8327563E+000	8.4864803E-002	1.000000000000000E+000	11	1.3446465E-001	8.5686153E-004	-8.056818691547961E-006	8.6142996E-004	6.3014491E-003	9.4822346E-004	6.3723926E-003	8.5574951E+000	-1.579436369098007E-007
1.5855076E+003	1.5719217E+002	2.4009541E+001	1.5901521E+002	-8.6842422E+000	3.511770366802375E+001	3.3061430E+000	-1.3351634E-003	4.1808825E+000	9.5314354E-002	1.000000000000000E+000	11	1.3445404E-001	8.4554200E-004	-9.098536620446895E-006	9.4155606E-004	6.2166089E-003	9.4952522E-004	6.2887063E-003	8.6842422E+000	-1.041717928898934E-006
1.4118373E+003	1.5931572E+002	2.4596821E+001	1.6120329E+002	-8.7766228E+000	3.587921055746847E+001	3.3061295E+000	-1.4313407E-003	4.5830703E+000	1.0670055E-001	1.000000000000000E+000	11	1.3444249E-001	8.3399349E-004	-9.226301576480586E-006	9.4155606E-004	6.1307107E-003	9.4652298E-004	6.2033474E-003	8.7766228E+000	-1.277649560336910E-007
1.2587914E+003	1.6149327E+002	2.5061899E+001	1.6342636E+002	-8.8212795E+000	3.663893795359763E+001	3.3061309E+000	-1.4932218E-003	5.0448976E+000	1.1864136E-001	1.000000000000000E+000	11	1.3442376E-001	8.2253414E-004	-1.017667023516777E-005	6.2105147E-004	6.0465857E-003	9.3836058E-004	6.1189639E-003	8.8212795E+000	-9.503686586871884E-007
1.1217948E+003	1.6372946E+002	2.5447838E+001	1.6569530E+002	-8.8345737E+000	3.739745857627713E+001	3.3061321E+000	-1.4371193E-003	5.5751405E+000	1.3150348E-001	1.000000000000000E+000	11	1.3440931E-001	8.1118359E-004	-9.923899281459550E-006	9.4155606E-004	5.9635723E-003	9.2689489E-004	6.0351742E-003	8.8345737E+000	2.527709537082241E-007
1.0003201E+003	1.6602724E+002	2.5705214E+001	1.6800536E+002	-8.8009577E+000	3.815667823903641E+001	3.3061280E+000	-1.5165210E-003	6.1895623E+000	1.4489591E-001	1.000000000000000E+000	11	1.3439867E-001	7.9996657E-004	-1.015338070959034E-005	2.2042071E-004	5.8821090E-003	9.1069925E-004	5.9521911E-003	8.8009577E+000	-2.294814281307887E-007
8.9142657E+002	1.6831055E+002	2.5840506E+001	1.7028262E+002	-8.7283955E+000	3.891545491499710E+001	3.3061366E+000	-1.4397283E-003	6.9092917E+000	1.5910906E-001	1.000000000000000E+000	11	1.3436916E-001	7.8909501E-004	-1.034810208327771E-005	7.8130380E-004	5.8045783E-003	8.9116959E-004	5.8725900E-003	8.7283955E+000	-1.947213736873693E-007
7.9423773E+002	1.7061514E+002	2.5856190E+001	1.7256323E+002	-8.6174240E+000	3.967492716445122E+001	3.3061390E+000	-1.4354426E-003	7.7500601E+000	1.7399535E-001	1.000000000000000E+000	11	1.3435200E-001	7.7856675E-004	-1.038367359754759E-005	6.2105147E-004	5.7295570E-003	8.6829637E-004	5.7949773E-003	8.6174240E+000	-3.557151426987987E-008
7.0750946E+002	1.7287914E+002	2.5775892E+001	1.7479013E+002	-8.4802027E+000	4.043745280065923E+001	3.3061354E+000	-1.4699252E-003	8.7271843E+000	1.8978757E-001	1.000000000000000E+000	11	1.3433933E-001	7.6857506E-004	-1.096876385579688E-005	3.0054685E-004	5.6585968E-003	8.4368419E-004	5.7211467E-003	8.4802027E+000	-5.850902582492883E-007
6.3100964E+002	1.7509636E+002	2.5581070E+001	1.7695515E+002	-8.3119421E+000	4.119541816998390E+001	3.3061371E+000	-1.4386118E-003	9.8597393E+000	2.0605180E-001	1.000000000000000E+000	11	1.3432676E-001	7.5910054E-004	-1.142380398064334E-005	7.8130380E-004	5.5917879E-003	8.1694400E-004	5.6511494E-003	8.3119421E+000	-4.550401248464673E-007
5.6233929E+002	1.7724559E+002	2.5313156E+001	1.7904401E+002	-8.1276808E+000	4.195191012593568E+001	3.3061352E+000	-1.4958329E-003	1.1180864E+001	2.2348502E-001	1.000000000000000E+000	11	1.3430732E-001	7.5013586E-004	-1.240335157913311E-005	7.0117763E-004	5.5291182E-003	7.8963558E-004	5.5852192E-003	8.1276808E+000	-9.795475984897669E-007
5.0144415E+002	1.7931549E+002	2.4960394E+001	1.8104437E+002	-7.9245496E+000	4.270919546854566E+001	3.3061378E+000	-1.5072027E-003	1.2715872E+001	2.4170128E-001	1.000000000000000E+000	11	1.3429922E-001	7.4180280E-004	-1.226700319510807E-005	7.8130380E-004	5.4707611E-003	7.6152018E-004	5.5235079E-003	7.9245496E+000	1.363483840250417E-007
4.4685895E+002	1.8131741E+002	2.4563070E+001	1.8297363E+002	-7.7148933E+000	4.346491238448652E+001	3.3061380E+000	-1.5347885E-003	1.4499968E+001	2.6130956E-001	1.000000000000000E+000	11	1.3428569E-001	7.3390733E-004	-1.309069475045221E-005	1.0216822E-003	5.4157986E-003	7.3367823E-004	5.4652682E-003	7.7148933E+000	-8.236915553441387E-007
3.9808920E+002	1.8323560E+002	2.4123676E+001	1.8481676E+002	-7.5000777E+000	4.422770964739175E+001	3.3061371E+000	-1.5133551E-003	1.6572813E+001	2.8235829E-001	1.000000000000000E+000	11	1.3428432E-001	7.2658085E-004	-1.364879991747956E-005	6.2105147E-004	5.3644739E-003	7.0625381E-004	5.4107648E-003	7.5000777E+000	-5.581051670273562E-007
3.5465955E+002	1.8506667E+002	2.3666058E+001	1.8657372E+002	-7.2873502E+000	4.498795344348764E+001	3.3061411E+000	-1.5284526E-003	1.8961931E+001	3.0509388E-001	1.000000000000000E+000	11	1.3427532E-001	7.1969040E-004	-1.350134087004052E-005	6.2105147E-004	5.3165178E-003	6.7986862E-004	5.3598117E-003	7.2873502E+000	1.474590474390435E-007
3.1631586E+002	1.8680594E+002	2.3216904E+001	1.8824315E+002	-7.0845942E+000	4.574390566605143E+001	3.3061361E+000	-1.5584615E-003	2.1671793E+001	3.2965913E-001	1.000000000000000E+000	11	1.3426906E-001	7.1327464E-004	-1.434992476811426E-005	9.4155606E-004	5.2717198E-003	6.5518799E-004	5.3122784E-003	7.0845942E+000	-8.485838980737355E-007
2.8189429E+002	1.8845993E+002	2.2793173E+001	1.8983328E+002	-6.8961096E+000	4.649941770193982E+001	3.3061366E+000	-1.5383307E-003	2.4770174E+001	3.5710335E-001	1.000000000000000E+000	11	1.3425948E-001	7.0724939E-004	-1.524335687341995E-005	4.6079917E-004	5.2296706E-003	6.3249934E-004	5.2677803E-003	6.8961096E+000	-8.934321053056922E-007
2.5104436E+002	1.9006860E+002	2.2356768E+001	1.9137894E+002	-6.7085748E+000	4.725593077787198E+001	3.3061409E+000	-1.5303162E-003	2.8357021E+001	3.8698167E-001	1.000000000000000E+000	11	1.3425155E-001	7.0149597E-004	-1.605758620625764E-005	3.8067301E-004	5.1894593E-003	6.1040872E-004	5.2252356E-003	6.7085748E+000	-8.142293328376892E-007
2.2392513E+002	1.9159009E+002	2.1969397E+001	1.9284558E+002	-6.5414643E+000	4.801871302745712E+001	3.3061187E+000	-1.5836243E-003	3.2351856E+001	4.1987118E-001	1.000000000000000E+000	11	1.3425307E-001	6.9616875E-004	-1.674566215078165E-005	6.2105147E-004	5.1517366E-003	5.9074321E-004	5.1854961E-003	6.5414643E+000	-6.880759445240163E-007
1.9955299E+002	1.9308852E+002	2.1624325E+001	1.9429562E+002	-6.3900294E+000	4.877820855684695E+001	3.3061297E+000	-1.5845560E-003	3.6882412E+001	4.5685500E-001	1.000000000000000E+000	11	1.3424532E-001	6.9093332E-004	-1.641813737020412E-005	1.0216822E-003	5.1148208E-003	5.7281781E-004	5.1467963E-003	6.3900294E+000	3.275247805775294E-007
1.7778128E+002	1.9455763E+002	2.1316366E+001	1.9572189E+002	-6.2525725E+000	4.954625907327863E+001	3.3061275E+000	-1.5843704E-003	4.1997257E+001	4.9815956E-001	1.000000000000000E+000	11	1.3425440E-001	6.8594469E-004	-1.735505019263170E-005	6.2105147E-004	5.0788978E-003	5.5646052E-004	5.1092906E-003	6.2525725E+000	-9.369128224275793E-007
1.5842838E+002	1.9597168E+002	2.1042562E+001	1.9709818E+002	-6.1286826E+000	5.031273846974364E+001	3.3061283E+000	-1.5784069E-003	4.7740677E+001	5.4415244E-001	1.000000000000000E+000	11	1.3424262E-001	6.8109523E-004	-1.724978241366787E-005	3.0054685E-004	5.0446158E-003	5.4166827E-004	5.0736135E-003	6.1286826E+000	1.052677789638348E-007
1.4131134E+002	1.9733296E+002	2.0811827E+001	1.9842740E+002	-6.0204740E+000	5.106487751880195E+001	3.3061221E+000	-1.5595808E-003	5.4116905E+001	5.9531939E-001	1.000000000000000E+000	11	1.3424134E-001	6.7652622E-004	-1.795151675974517E-005	1.1018084E-003	5.0118305E-003	5.2857539E-004	5.0396267E-003	6.0204740E+000	-7.017343460772997E-007
1.2584569E+002	1.9872237E+002	2.0607449E+001	1.9978801E+002	-5.9203935E+000	5.182042971465853E+001	3.3061259E+000	-1.5372151E-003	6.1370205E+001	6.5293080E-001	1.000000000000000E+000	11	1.3423485E-001	6.7188637E-004	-1.801077607406640E-005	7.0117763E-004	4.9786079E-003	5.1628012E-004	5.0053052E-003	5.9203935E+000	-5.925931432122710E-008
1.1218996E+002	2.0006224E+002	2.0449556E+001	2.0110466E+002	-5.8362741E+000	5.256583185675845E+001	3.3061361E+000	-1.5513801E-003	6.9371689E+001	7.1730816E-001	1.000000000000000E+000	11	1.3423437E-001	6.6748512E-004	-1.818353637523251E-005	1.1018084E-003	4.9467604E-003	5.0563790E-004	4.9725352E-003	5.8362741E+000	-1.727603011661118E-007
1.0003201E+002	2.0138968E+002	2.0334301E+001	2.0241365E+002	-5.7656102E+000	5.332571250619367E+001	3.3061233E+000	-1.6149388E-003	7.8244148E+001	7.8964299E-001	1.000000000000000E+000	11	1.3423291E-001	6.6316134E-004	-1.891385660077988E-005	5.4092531E-004	4.9153860E-003	4.9630617E-004	4.9403785E-003	5.7656102E+000	-7.303202255473777E-007
8.9115974E+001	2.0270444E+002	2.0238064E+001	2.0371222E+002	-5.7015309E+000	5.409175467590103E+001	3.3061318E+000	-1.6065518E-003	8.8246117E+001	8.7096232E-001	1.000000000000000E+000	11	1.3422965E-001	6.5891800E-004	-1.936178809631706E-005	1.0216822E-003	4.8846011E-003	4.8767982E-004	4.9088858E-003	5.7015309E+000	-4.479314955371790E-007
7.9415527E+001	2.0399825E+002	2.0194555E+001	2.0499538E+002	-5.6535053E+000	5.485523623213521E+001	3.3061295E+000	-1.5593955E-003	9.9238548E+001	9.6307665E-001	1.000000000000000E+000	11	1.3423511E-001	6.5482018E-004	-1.976512756379735E-005	8.6142996E-004	4.8544304E-003	4.8055837E-004	4.8781587E-003	5.6535053E+000	-4.033394674802890E-007
7.0838745E+001	2.0528882E+002	2.0199530E+001	2.0628020E+002	-5.6195674E+000	5.560640874781529E+001	3.3061345E+000	-1.5502622E-003	1.1122643E+002	1.0665358E+000	1.000000000000000E+000	11	1.3423230E-001	6.5072800E-004	-1.984043558104733E-005	8.6142996E-004	4.8244768E-003	4.7470763E-004	4.8477752E-003	5.6195674E+000	-7.530801724997944E-008
6.3082302E+001	2.0656917E+002	2.0213581E+001	2.0755580E+002	-5.5888176E+000	5.638682478491683E+001	3.3061285E+000	-1.5966732E-003	1.2481573E+002	1.1838212E+000	1.000000000000000E+000	11	1.3422889E-001	6.4671226E-004	-2.042239362723194E-005	7.8130380E-004	4.7950787E-003	4.6921673E-004	4.8179813E-003	5.5888176E+000	-5.819580461846076E-007
5.6241817E+001	2.0781180E+002	2.0313219E+001	2.0880223E+002	-5.5828209E+000	5.713033770016045E+001	3.3061299E+000	-1.5331160E-003	1.3930992E+002	1.3184670E+000	1.000000000000000E+000	11	1.3422756E-001	6.4284541E-004	-2.015615234169592E-005	7.8130380E-004	4.7665033E-003	4.6591691E-004	4.7892206E-003	5.5828209E+000	2.662412855360226E-007
5.0144413E+001	2.0906635E+002	2.0472176E+001	2.1006628E+002	-5.5926824E+000	5.788718800278730E+001	3.3061416E+000	-1.5679708E-003	1.5503636E+002	1.4724782E+000	1.000000000000000E+000	11	1.3422756E-001	6.3897716E-004	-2.004544694974740E-005	8.6142996E-004	4.7377422E-003	4.6392877E-004	4.7604023E-003	5.5926824E+000	1.107053919485137E-007
4.4671219E+001	2.1031480E+002	2.0662701E+001	2.1132739E+002	-5.6111045E+000	5.865121057242504E+001	3.3061328E+000	-1.5826958E-003	1.7242699E+002	1.6484197E+000	1.000000000000000E+000	11	1.3423094E-001	6.3518004E-004	-2.048755714687933E-005	5.4092531E-004	4.7093206E-003	4.6267442E-004	4.7319941E-003	5.6111045E+000	-4.421101971319237E-007
3.9808922E+001	2.1157574E+002	2.0913538E+001	2.1260684E+002	-5.6451540E+000	5.941373626202403E+001	3.3061361E+000	-1.5595838E-003	1.9116669E+002	1.8497488E+000	1.000000000000000E+000	11	1.3422975E-001	6.3135196E-004	-2.113920980089137E-005	3.8067301E-004	4.6807062E-003	4.6267183E-004	4.7035175E-003	5.6451540E+000	-6.516526540120427E-007
3.5465305E+001	2.1285652E+002	2.1228743E+001	2.1391251E+002	-5.6954255E+000	6.016413131097215E+001	3.3061311E+000	-1.5556706E-003	2.1139375E+002	2.0819407E+000	1.000000000000000E+000	11	1.3422935E-001	6.2749651E-004	-2.124455432156618E-005	7.8130380E-004	4.6517313E-003	4.6392943E-004	4.6748086E-003	5.6954255E+000	-1.053445206748127E-007
3.1629551E+001	2.1410977E+002	2.1618862E+001	2.1519844E+002	-5.7656670E+000	6.088846793203265E+001	3.3061340E+000	-1.5513846E-003	2.3275247E+002	2.3489928E+000	1.000000000000000E+000	11	1.3422275E-001	6.2371616E-004	-2.086733301428224E-005	5.4092531E-004	4.6233661E-003	4.6682553E-004	4.6468740E-003	5.7656670E+000	3.772213072839405E-007
2.8170074E+001	2.1539993E+002	2.2090809E+001	2.1652975E+002	-5.8556209E+000	6.169273365027038E+001	3.3061213E+000	-1.7901479E-003	2.5575287E+002	2.6620033E+000	1.000000000000000E+000	11	1.3422540E-001	6.1989354E-004	-2.076186239408950E-005	7.8130380E-004	4.5942054E-003	4.7116872E-004	4.6183029E-003	5.8556209E+000	1.054706201927422E-007
2.5104435E+001	2.1672858E+002	2.2644037E+001	2.1790831E+002	-5.9646840E+000	6.244894400617341E+001	3.3061268E+000	-1.5491481E-003	2.7997281E+002	3.0232635E+000	1.000000000000000E+000	11	1.3422158E-001	6.1595440E-004	-2.128226054212751E-005	7.8130380E-004	4.5642410E-003	4.7687688E-004	4.5890859E-003	5.9646840E+000	-5.203981480380121E-007
2.2385387E+001	2.1807285E+002	2.3267675E+001	2.1931062E+002	-6.0902357E+000	6.313544569208170E+001	3.3061337E+000	-1.4356369E-003	3.0556424E+002	3.4394515E+000	1.000000000000000E+000	11	1.3422091E-001	6.1201281E-004	-2.226606681817470E-005	5.4092531E-004	4.5340075E-003	4.8376416E-004	4.5597428E-003	6.0902357E+000	-9.838062760471858E-007
1.9955299E+001	2.1943213E+002	2.3933153E+001	2.2073344E+002	-6.2245650E+000	6.389619271489210E+001	3.3061304E+000	-1.5851207E-003	3.3324371E+002	3.9176490E+000	1.000000000000000E+000	11	1.3422182E-001	6.0807198E-004	-2.343494866441405E-005	9.4155606E-004	4.5036427E-003	4.9120595E-004	4.5303511E-003	6.2245650E+000	-1.168881846239352E-006
1.7796129E+001	2.2086668E+002	2.4727854E+001	2.2224661E+002	-6.3881345E+000	6.474051507495460E+001	3.3060994E+000	-1.9058952E-003	3.6166641E+002	4.4772434E+000	1.000000000000000E+000	11	1.3422260E-001	6.0393539E-004	-2.395173297060440E-005	9.4155606E-004	4.4715689E-003	5.0062913E-004	4.4995062E-003	6.3881345E+000	-5.167843061903532E-007
1.5857576E+001	2.2233334E+002	2.5603062E+001	2.2380266E+002	-6.5690289E+000	6.546291153598577E+001	3.3061397E+000	-1.7314354E-003	3.9200485E+002	5.1303234E+000	1.000000000000000E+000	11	1.3422075E-001	5.9972814E-004	-2.138241361095505E-005	7.0117763E-004	4.4388874E-003	5.1116536E-004	4.4682221E-003	6.5690289E+000	2.569319359649350E-006
1.4118974E+001	2.2390472E+002	2.6595711E+001	2.2547873E+002	-6.7739329E+000	6.626526229406591E+001	3.3061283E+000	-1.5612633E-003	4.2384338E+002	5.8968143E+000	1.000000000000000E+000	11	1.3422510E-001	5.9528940E-004	-2.317634663569495E-005	2.2042071E-004	4.4040484E-003	5.2311894E-004	4.4350079E-003	6.7739329E+000	-1.793933024739901E-006
1.2600808E+001	2.2549474E+002	2.7632099E+001	2.2718144E+002	-6.9861889E+000	6.715587180308648E+001	3.3061092E+000	-1.8230460E-003	4.5709650E+002	6.7622299E+000	1.000000000000000E+000	11	1.3422495E-001	5.9082708E-004	-2.532064819151775E-005	5.4092531E-004	4.3690871E-003	5.3538743E-004	4.4017681E-003	6.9861889E+000	-2.144301555822795E-006
1.1224856E+001	2.2718814E+002	2.8791595E+001	2.2900525E+002	-7.2226033E+000	6.783990754222032E+001	3.3061328E+000	-1.7336728E-003	4.9246301E+002	7.7842035E+000	1.000000000000000E+000	11	1.3422415E-001	5.8611820E-004	-2.224635289219117E-005	9.4155606E-004	4.3320633E-003	5.4900319E-004	4.3667122E-003	7.2226033E+000	3.074295299326575E-006
1.0003201E+001	2.2893463E+002	3.0023573E+001	2.3089496E+002	-7.4714012E+000	6.859968224499607E+001	3.3061354E+000	-1.5646168E-003	5.2993036E+002	8.9601364E+000	1.000000000000000E+000	11	1.3421644E-001	5.8128790E-004	-2.343174256424471E-005	6.2105147E-004	4.2942031E-003	5.6316215E-004	4.3309736E-003	7.4714012E+000	-1.185389672053539E-006
8.9183798E+000	2.3076584E+002	3.1324572E+001	2.3288216E+002	-7.7301850E+000	6.944401207176270E+001	3.3061073E+000	-1.8513770E-003	5.6970367E+002	1.0307347E+001	1.000000000000000E+000	11	1.3421996E-001	5.7634281E-004	-2.501440879993930E-005	4.6079917E-004	4.2549954E-003	5.7758071E-004	4.2940173E-003	7.7301850E+000	-1.582666235694586E-006
7.9395342E+000	2.3272946E+002	3.2754879E+001	2.3502316E+002	-8.0113192E+000	7.038270744968759E+001	3.3061154E+000	-1.8093467E-003	6.1199677E+002	1.1887206E+001	1.000000000000000E+000	11	1.3422084E-001	5.7109620E-004	-2.465756859084164E-005	1.0216822E-003	4.2133746E-003	5.9300003E-004	4.2548999E-003	8.0113192E+000	3.568402090976546E-007
7.0765405E+000	2.3476184E+002	3.4311489E+001	2.3725598E+002	-8.3151598E+000	7.094104342284845E+001	3.3060794E+000	-1.9860426E-003	6.5548016E+002	1.3708956E+001	1.000000000000000E+000	11	1.3421798E-001	5.6570955E-004	-2.574478640712914E-005	9.4155606E-004	4.1705482E-003	6.0954422E-004	4.2148568E-003	8.3151598E+000	-1.087217816287496E-006
6.3105822E+000	2.3689621E+002	3.5824535E+001	2.3958968E+002	-8.5993738E+000	7.156117705229553E+001	3.3061130E+000	-2.3217287E-003	7.0399591E+002	1.5739650E+001	1.000000000000000E+000	11	1.3421512E-001	5.6018739E-004	-2.842944686567191E-005	8.6142996E-004	4.1268808E-003	6.2408589E-004	4.1738027E-003	8.5993738E+000	-2.684660458542769E-006
5.6205034E+000	2.3918571E+002	3.7497551E+001	2.4210715E+002	-8.9098358E+000	7.224766049827304E+001	3.3061345E+000	-2.6136127E-003	7.5516534E+002	1.8114761E+001	1.000000000000000E+000	11	1.3421831E-001	5.5437564E-004	-3.046998504956314E-005	7.0117763E-004	4.0805624E-003	6.3971669E-004	4.1304026E-003	8.9098358E+000	-2.040538183891235E-006
5.0144415E+000	2.4138206E+002	3.9288494E+001	2.4455855E+002	-9.2446651E+000	7.300517762752133E+001	3.3061309E+000	-2.9483668E-003	8.0785272E+002	2.0849577E+001	1.000000000000000E+000	11	1.3422093E-001	5.4882944E-004	-2.756210845097020E-005	4.6079917E-004	4.0358896E-003	6.5690058E-004	4.0890002E-003	9.2446651E+000	2.907876598592947E-006
4.4693937E+000	2.4397878E+002	4.1321865E+001	2.4745331E+002	-9.6127720E+000	7.384651092081913E+001	3.3060968E+000	-2.2810034E-003	8.6177045E+002	2.4030615E+001	1.000000000000000E+000	11	1.3421860E-001	5.4239971E-004	-2.130989008151098E-005	6.2105147E-004	3.9844238E-003	6.7482848E-004	4.0411665E-003	9.6127720E+000	6.252218369459214E-006
3.9778514E+000	2.4661131E+002	4.3266026E+001	2.5037790E+002	-9.9508257E+000	7.478316683197045E+001	3.3061187E+000	-1.5253847E-003	9.2475055E+002	2.7613827E+001	1.000000000000000E+000	11	1.3422130E-001	5.3607486E-004	-2.552338846441449E-005	5.4092531E-004	3.9338795E-003	6.9016835E-004	3.9939629E-003	9.9508257E+000	-4.213498382903504E-006
3.5511365E+000	2.4937741E+002	4.5465431E+001	2.5348807E+002	-1.0332440E+001	7.582437610809575E+001	3.3061063E+000	-1.8183867E-003	9.8576062E+002	3.1711664E+001	1.000000000000000E+000	11	1.3421983E-001	5.2949169E-004	-3.452472987804544E-005	9.4155606E-004	3.8809862E-003	7.0756493E-004	3.9449590E-003	1.0332440E+001	-9.001341413630956E-006
3.1603966E+000	2.5222191E+002	4.7625572E+001	2.5667896E+002	-1.0692925E+001	7.698623570994823E+001	3.3061249E+000	-2.4650621E-003	1.0573977E+003	3.6403088E+001	1.000000000000000E+000	11	1.3422133E-001	5.2291522E-004	-2.465019160615824E-005	8.6142996E-004	3.8282676E-003	7.2286912E-004	3.8959174E-003	1.0692925E+001	9.874538271887207E-006
2.8183618E+000	2.5538249E+002	4.9998379E+001	2.6023077E+002	-1.1077168E+001	7.828164678487155E+001	3.3061223E+000	-1.6981217E-003	1.1294512E+003	4.1692890E+001	1.000000000000000E+000	11	1.3421744E-001	5.1576312E-004	-2.493322612230420E-005	5.4092531E-004	3.7711500E-003	7.3830975E-004	3.8427431E-003	1.1077168E+001	-2.830345161459674E-007
2.5136740E+000	2.5854700E+002	5.2502842E+001	2.6382401E+002	-1.1478901E+001	7.972568805345509E+001	3.3061244E+000	-1.7142127E-003	1.2059474E+003	4.7760117E+001	1.000000000000000E+000	11	1.3421731E-001	5.0873804E-004	-3.853855656007848E-005	1.2620607E-003	3.7145901E-003	7.5431750E-004	3.7904056E-003	1.1478901E+001	-1.360533043777428E-005
2.2398219E+000	2.6182175E+002	5.5067085E+001	2.6755002E+002	-1.1877492E+001	8.134033397011808E+001	3.3061190E+000	-2.2631579E-003	1.2903708E+003	5.4662407E+001	1.000000000000000E+000	11	1.3421938E-001	5.0166086E-004	-2.152380113420885E-005	1.1018084E-003	3.6575962E-003	7.6927588E-004	3.7376189E-003	1.1877492E+001	1.701475542586963E-005
1.9970604E+000	2.6542807E+002	5.7711540E+001	2.7162967E+002	-1.2266791E+001	8.369269104187697E+001	3.3061357E+000	1.0049404E-004	1.3809127E+003	6.2335747E+001	1.000000000000000E+000	12	1.3421926E-001	4.9412594E-004	-3.204561946571468E-005	5.4092531E-004	3.5974307E-003	7.8218279E-004	3.6814830E-003	1.2266791E+001	-1.052181833150583E-005
1.7796129E+000	2.6916852E+002	6.0655849E+001	2.7591815E+002	-1.2699210E+001	8.571085367104388E+001	3.3061302E+000	-5.1932097E-005	1.4744222E+003	7.1253586E+001	1.000000000000000E+000	12	1.3422243E-001	4.8645740E-004	-4.364512976368294E-005	7.0117763E-004	3.5356050E-003	7.9673179E-004	3.6242632E-003	1.2699210E+001	-1.159951029796826E-005
1.5846854E+000	2.7304263E+002	6.3706047E+001	2.8037607E+002	-1.3133245E+001	8.797009567168425E+001	3.3061385E+000	-2.8245483E-004	1.5765088E+003	8.1390900E+001	1.000000000000000E+000	12	1.3422328E-001	4.7872588E-004	-2.121130062503249E-005	1.1018084E-003	3.4733503E-003	8.1039878E-004	3.5666383E-003	1.3133245E+001	2.243382913865045E-005
1.4122382E+000	2.7710010E+002	6.6816330E+001	2.8504190E+002	-1.3556776E+001	9.049911096514552E+001	3.3061306E+000	2.5512720E-004	1.6866677E+003	9.2678146E+001	1.000000000000000E+000	12	1.3421893E-001	4.7087439E-004	-4.930183015348868E-005	5.4092531E-004	3.4105093E-003	8.2236610E-004	3.5082560E-003	1.3556776E+001	-2.809052952845620E-005
1.2596743E+000	2.8139847E+002	7.0048729E+001	2.8998608E+002	-1.3978568E+001	9.332799603283638E+001	3.3061347E+000	-3.8289494E-004	1.8036886E+003	1.0524653E+002	1.000000000000000E+000	12	1.3422357E-001	4.6286208E-004	-2.165179982782542E-005	8.6142996E-004	3.3463198E-003	8.3300180E-004	3.4484414E-003	1.3978568E+001	2.765003032566326E-005
1.1224856E+000	2.8595352E+002	7.3523117E+001	2.9525424E+002	-1.4419310E+001	9.649509506326285E+001	3.3061442E+000	2.3267390E-004	1.9284812E+003	1.1958341E+002	1.000000000000000E+000	12	1.3421635E-001	4.5457893E-004	-4.417691653507387E-005	7.8130380E-004	3.2802213E-003	8.4339618E-004	3.3869115E-003	1.4419310E+001	-2.252511670724845E-005
1.0000638E+000	2.9077994E+002	7.7218231E+001	3.0085815E+002	-1.4871965E+001	1.000441317385121E+002	3.3061402E+000	-2.5501306E-004	2.0609744E+003	1.3576527E+002	1.000000000000000E+000	12	1.3422218E-001	4.4613110E-004	-3.059890979819789E-005	6.2105147E-004	3.2124834E-003	8.5309282E-004	3.3238255E-003	1.4871965E+001	1.357800673687598E-005