EC-Lab ASCII FILE
Nb header lines : 60                          

Potentio Electrochemical Impedance Spectroscopy

Run on channel : 7 (SN 41379)
User : 
CE vs. WE compliance from -10 V to 10 V
Electrode connection : standard
Ewe ctrl range : min = -10.00 V, max = 10.00 V
Acquisition started on : 12/03/2020 16:53:31
Technique started on : 12/03/2020 16:53:33
Saved on :
	File : DE_206_7_30.mpr
	Directory : P:\Chemistry\Data\VMP3\Kyler\DOE\DE_206\
	Host : 10.0.4.64
Device : VMP3 (SN 1432)
Address : USB
EC-Lab for windows v11.33 (software)
Internet server v11.32 (firmware)
Command interpretor v11.33 (firmware)
Electrode material : 
Initial state : 
Electrolyte : 
Comments : 
Electrode surface area : 0.001 cm²
Characteristic mass : 0.001 g
Equivalent Weight : 0.000 g/eq.
Density : 0.000 g/cm3
Record Analogic IN 1
Cycle Definition : Charge/Discharge alternance
Mode                Single sine         
E (V)               0.0000              
vs.                 Eoc                 
tE (h:m:s)          0:00:0.0000         
record              0                   
dI                  1.000               
unit dI             mA                  
dt (s)              0.000               
fi                  1.000               
unit fi             MHz                 
ff                  1.000               
unit ff             Hz                  
Nd                  20                  
Points              per decade          
spacing             Logarithmic         
Va (mV)             128.0               
pw                  0.50                
Na                  3                   
corr                0                   
E range min (V)     -10.000             
E range max (V)     10.000              
I Range             Auto                
Bandwidth           5                   
nc cycles           0                   
goto Ns'            0                   
nr cycles           0                   
inc. cycle          1                   

freq/Hz	Re(Z)/Ohm	-Im(Z)/Ohm	|Z|/Ohm	Phase(Z)/deg	time/s	<Ewe>/V	<I>/mA	Cs/µF	Cp/µF	cycle number	I Range	|Ewe|/V	|I|/A	(Q-Qo)/mA.h	Analog IN 1/V	Re(Y)/Ohm-1	Im(Y)/Ohm-1	|Y|/Ohm-1	Phase(Y)/deg	dq/mA.h	
1.0000186E+006	1.1910130E+002	7.5998581E+001	1.4128307E+002	-3.2541962E+001	2.963471607392421E+000	3.3328311E+000	-6.9165393E-004	2.0941442E-003	6.0595077E-004	1.000000000000000E+000	11	1.8527803E-004	1.3113959E-006	-3.897608819898558E-005	9.2617015E-004	5.9667286E-003	3.8073717E-003	7.0779892E-003	3.2541962E+001	-3.897608819898558E-005
8.9124669E+005	1.2515401E+002	7.1842789E+001	1.4430840E+002	-2.9857336E+001	3.559479209041456E+000	3.3322318E+000	-1.7709498E-003	2.4856448E-003	6.1605882E-004	1.000000000000000E+000	11	1.1416533E-003	7.9112051E-006	-3.929376146342848E-005	1.3269359E-003	6.0098218E-003	3.4498484E-003	6.9296039E-003	2.9857336E+001	-3.176732644428982E-007
7.9433269E+005	1.3099159E+002	7.2844856E+001	1.4988385E+002	-2.9078581E+001	4.154480863973731E+000	3.3319139E+000	-2.1848474E-003	2.7505453E-003	6.4969109E-004	1.000000000000000E+000	11	2.7652718E-003	1.8449431E-005	-3.967007693668903E-005	1.4872423E-003	5.8308747E-003	3.2425688E-003	6.6718329E-003	2.9078581E+001	-3.763154732605497E-007
7.0794981E+005	1.3868713E+002	7.3026802E+001	1.5673875E+002	-2.7769402E+001	4.750479265610920E+000	3.3317242E+000	-2.4711338E-003	3.0784730E-003	6.6826260E-004	1.000000000000000E+000	11	5.2328277E-003	3.3385666E-005	-4.021848191774117E-005	1.0063233E-003	5.6452528E-003	2.9725523E-003	6.3800430E-003	2.7769402E+001	-5.484049810521407E-007
6.3095681E+005	1.4607397E+002	7.3372383E+001	1.6346594E+002	-2.6670197E+001	5.346490760595771E+000	3.3316269E+000	-2.4776438E-003	3.4378574E-003	6.9262565E-004	1.000000000000000E+000	11	8.6379852E-003	5.2842723E-005	-4.050894259446300E-005	1.4070892E-003	5.4666125E-003	2.7458577E-003	6.1174822E-003	2.6670197E+001	-2.904606767218255E-007
5.6234225E+005	1.5321767E+002	7.3462601E+001	1.6991882E+002	-2.5616116E+001	5.942476815573173E+000	3.3315282E+000	-2.6854295E-003	3.8525932E-003	7.2011648E-004	1.000000000000000E+000	11	1.3046284E-002	7.6779514E-005	-4.099806218525333E-005	1.3269359E-003	5.3067161E-003	2.5443879E-003	5.8851633E-003	2.5616116E+001	-4.891195907903294E-007
5.0120619E+005	1.6053410E+002	7.3287567E+001	1.7647171E+002	-2.4537806E+001	6.539491430594353E+000	3.3315108E+000	-2.5613524E-003	4.3328474E-003	7.4728084E-004	1.000000000000000E+000	11	1.8522492E-002	1.0496012E-004	-4.146850569790109E-005	1.0063233E-003	5.1548630E-003	2.3533152E-003	5.6666308E-003	2.4537806E+001	-4.704435126477575E-007
4.4668572E+005	1.6752599E+002	7.2864754E+001	1.8268614E+002	-2.3506437E+001	7.134475138824200E+000	3.3314888E+000	-2.6658950E-003	4.8899064E-003	7.7790103E-004	1.000000000000000E+000	11	2.5017805E-002	1.3694419E-004	-4.197887037466454E-005	1.3269359E-003	5.0196215E-003	2.1832641E-003	5.4738689E-003	2.3506437E+001	-5.103646767634575E-007
3.9810347E+005	1.7425223E+002	7.2269691E+001	1.8864450E+002	-2.2525831E+001	7.729482980415924E+000	3.3314495E+000	-2.5894390E-003	5.5318195E-003	8.1188045E-004	1.000000000000000E+000	11	3.2537594E-002	1.7248101E-004	-4.196514075187002E-005	8.4601698E-004	4.8965486E-003	2.0308036E-003	5.3009763E-003	2.2525831E+001	1.372962279452247E-008
3.5480997E+005	1.8081219E+002	7.1052628E+001	1.9427179E+002	-2.1453024E+001	8.324494795378996E+000	3.3314238E+000	-2.6004144E-003	6.3131219E-003	8.4447151E-004	1.000000000000000E+000	11	4.1155607E-002	2.1184552E-004	-4.202501846741244E-005	1.4872423E-003	4.7908025E-003	1.8826113E-003	5.1474278E-003	2.1453024E+001	-5.987771554241851E-008
3.1622997E+005	1.8707137E+002	6.9683464E+001	1.9962836E+002	-2.0430195E+001	8.919478316936875E+000	3.3313713E+000	-2.7479285E-003	7.2224969E-003	8.8003994E-004	1.000000000000000E+000	11	5.0895821E-002	2.5495287E-004	-4.267024499417090E-005	1.0063233E-003	4.6942136E-003	1.7485790E-003	5.0093085E-003	2.0430195E+001	-6.452265267584562E-007
2.8183453E+005	1.9300803E+002	6.8143501E+001	2.0468423E+002	-1.9446110E+001	9.514475491858320E+000	3.3313265E+000	-2.7815951E-003	8.2870787E-003	9.1850513E-004	1.000000000000000E+000	11	6.1756212E-002	3.0171455E-004	-4.332171156233764E-005	1.1666296E-003	4.6068770E-003	1.6265059E-003	4.8855743E-003	1.9446110E+001	-6.514665681667489E-007
2.5118764E+005	1.9867068E+002	6.6389870E+001	2.0946994E+002	-1.8478106E+001	1.010948370679398E+001	3.3312943E+000	-2.8022430E-003	9.5437719E-003	9.5869455E-004	1.000000000000000E+000	11	7.3798232E-002	3.5230941E-004	-4.416180445751504E-005	1.1666296E-003	4.5278328E-003	1.5130680E-003	4.7739549E-003	1.8478106E+001	-8.400928951773958E-007
2.2387173E+005	2.0398599E+002	6.4470924E+001	2.1393173E+002	-1.7539434E+001	1.070549136176123E+001	3.3313136E+000	-2.6227310E-003	1.1026990E-002	1.0014616E-003	1.000000000000000E+000	11	8.6966902E-002	4.0651707E-004	-4.497392260276744E-005	1.4872423E-003	4.4570751E-003	1.4086837E-003	4.6743886E-003	1.7539434E+001	-8.121181452524026E-007
1.9954350E+005	2.0909473E+002	6.2503822E+001	2.1823688E+002	-1.6642765E+001	1.130248632348957E+001	3.3312652E+000	-2.7408535E-003	1.2760743E-002	1.0467257E-003	1.000000000000000E+000	11	1.0131511E-001	4.6424379E-004	-4.548581088072044E-005	1.0864765E-003	4.3902253E-003	1.3123518E-003	4.5821769E-003	1.6642765E+001	-5.118882779529992E-007
1.7783180E+005	2.1390004E+002	6.0491261E+001	2.2228905E+002	-1.5790984E+001	1.176147525195847E+001	3.3312528E+000	-2.7198333E-003	1.4795106E-002	1.0956384E-003	1.000000000000000E+000	11	1.1679995E-001	5.2544178E-004	-4.593114795219844E-005	9.2617015E-004	4.3288716E-003	1.2242115E-003	4.4986471E-003	1.5790984E+001	-4.453370714780020E-007
1.5848613E+005	2.1843047E+002	5.8446400E+001	2.2611469E+002	-1.4979962E+001	1.222149226049078E+001	3.3312728E+000	-2.6311008E-003	1.7181898E-002	1.1479662E-003	1.000000000000000E+000	11	1.3336354E-001	5.8980490E-004	-4.622035555931810E-005	1.0063233E-003	4.2722407E-003	1.1431422E-003	4.4225347E-003	1.4979962E+001	-2.892076071196568E-007
1.4125594E+005	2.2271808E+002	5.6359951E+001	2.2973853E+002	-1.4200873E+001	1.281749487543129E+001	3.3312566E+000	-2.7003011E-003	1.9991381E-002	1.2031406E-003	1.000000000000000E+000	11	1.2976320E-001	5.6482997E-004	-4.660263595243123E-005	1.2467828E-003	4.2197607E-003	1.0678320E-003	4.3527745E-003	1.4200873E+001	-3.822803931131306E-007
1.2590930E+005	2.2681155E+002	5.4347424E+001	2.3323190E+002	-1.3474868E+001	1.341447311712545E+001	3.3312814E+000	-2.6593765E-003	2.3258589E-002	1.2628896E-003	1.000000000000000E+000	11	1.2992024E-001	5.5704318E-004	-4.699602765823935E-005	6.0555746E-004	4.1695507E-003	9.9908642E-004	4.2875782E-003	1.3474868E+001	-3.933917058081171E-007
1.1220494E+005	2.3066785E+002	5.2316914E+001	2.3652635E+002	-1.2778851E+001	1.401047450545593E+001	3.3312976E+000	-2.4869340E-003	2.7112281E-002	1.3264510E-003	1.000000000000000E+000	11	1.2969659E-001	5.4833887E-004	-4.664751995013224E-005	1.4070892E-003	4.1231387E-003	9.3515380E-004	4.2278585E-003	1.2778851E+001	3.485077081071070E-007
1.0000371E+005	2.3430887E+002	5.0355991E+001	2.3965886E+002	-1.2129108E+001	1.460648426707485E+001	3.3312931E+000	-2.7069976E-003	3.1604785E-002	1.3953019E-003	1.000000000000000E+000	11	1.2968393E-001	5.4111885E-004	-4.688548573878729E-005	1.4872423E-003	4.0794509E-003	8.7672652E-004	4.1725975E-003	1.2129108E+001	-2.379657886550479E-007
8.9129305E+004	2.3776591E+002	4.8435310E+001	2.4264915E+002	-1.1514181E+001	1.520248784203432E+001	3.3312953E+000	-2.6750027E-003	3.6866978E-002	1.4689403E-003	1.000000000000000E+000	11	1.2962507E-001	5.3420779E-004	-4.821392810444922E-005	9.2617015E-004	4.0382389E-003	8.2262995E-004	4.1211764E-003	1.1514181E+001	-1.328442365661935E-006
7.9433273E+004	2.4097575E+002	4.6580418E+001	2.4543645E+002	-1.0940300E+001	1.579849264372024E+001	3.3313243E+000	-2.6372396E-003	4.3014444E-002	1.5493265E-003	1.000000000000000E+000	11	1.2949920E-001	5.2762823E-004	-4.855278663951301E-005	8.4601698E-004	4.0003248E-003	7.7325955E-004	4.0743747E-003	1.0940300E+001	-3.388585350637904E-007
7.0794977E+004	2.4403027E+002	4.4790546E+001	2.4810677E+002	-1.0400593E+001	1.639348320526187E+001	3.3313391E+000	-2.5286044E-003	5.0191633E-002	1.6357873E-003	1.000000000000000E+000	11	1.2930106E-001	5.2115088E-004	-4.971151125083735E-005	1.1666296E-003	3.9642998E-003	7.2762754E-004	4.0305229E-003	1.0400593E+001	-1.158724611324331E-006
6.3093828E+004	2.4693155E+002	4.3075634E+001	2.5066052E+002	-9.8953114E+000	1.685347904046648E+001	3.3313375E+000	-2.5189305E-003	5.8560070E-002	1.7293904E-003	1.000000000000000E+000	11	1.4041641E-001	5.6018558E-004	-4.958220065617267E-005	1.0063233E-003	3.9301100E-003	6.8558258E-004	3.9894595E-003	9.8953114E+000	1.293105946646776E-007
5.6237012E+004	2.4968146E+002	4.1477596E+001	2.5310318E+002	-9.4319582E+000	1.744848008206463E+001	3.3313203E+000	-2.6643991E-003	6.8231404E-002	1.8323831E-003	1.000000000000000E+000	11	1.3036978E-001	5.1508553E-004	-5.004953006343062E-005	1.1666296E-003	3.8975442E-003	6.4746803E-004	3.9509577E-003	9.4319582E+000	-4.673294072579480E-007
5.0122477E+004	2.5222305E+002	3.9958492E+001	2.5536865E+002	-9.0022793E+000	1.790849421059829E+001	3.3313382E+000	-2.5764110E-003	7.9465479E-002	1.9456357E-003	1.000000000000000E+000	11	1.3960327E-001	5.4667349E-004	-5.001469588050592E-005	3.6509795E-004	3.8676716E-003	6.1273674E-004	3.9159073E-003	9.0022793E+000	3.483418292469462E-008
4.4666715E+004	2.5467078E+002	3.8560467E+001	2.5757352E+002	-8.6099262E+000	1.850447522554896E+001	3.3313513E+000	-2.5717604E-003	9.2404649E-002	2.0709804E-003	1.000000000000000E+000	11	1.3000755E-001	5.0473958E-004	-5.124266636109981E-005	1.0063233E-003	3.8386341E-003	5.8121909E-004	3.8823867E-003	8.6099262E+000	-1.227970480593891E-006
3.9814063E+004	2.5700076E+002	3.7260723E+001	2.5968781E+002	-8.2494287E+000	1.896449351406773E+001	3.3313837E+000	-2.4653573E-003	1.0728336E-001	2.2086750E-003	1.000000000000000E+000	11	1.3719776E-001	5.2831811E-004	-5.165071929654267E-005	1.4872423E-003	3.8109329E-003	5.5252016E-004	3.8507776E-003	8.2494287E+000	-4.080529354428606E-007
3.5480996E+004	2.5921194E+002	3.6077831E+001	2.6171060E+002	-7.9236803E+000	1.956047330235015E+001	3.3313394E+000	-2.6482157E-003	1.2433229E-001	2.3627738E-003	1.000000000000000E+000	11	1.2965234E-001	4.9540348E-004	-5.324212074490929E-005	1.5673955E-003	3.7845336E-003	5.2674179E-004	3.8210144E-003	7.9236803E+000	-1.591401448366620E-006
3.1621143E+004	2.6130042E+002	3.5020638E+001	2.6363678E+002	-7.6335449E+000	2.002049209756660E+001	3.3313363E+000	-2.6273816E-003	1.4372043E-001	2.5360314E-003	1.000000000000000E+000	11	1.3495904E-001	5.1191280E-004	-5.398236809441308E-005	1.4070892E-003	3.7594829E-003	5.0386257E-004	3.7930976E-003	7.6335449E+000	-7.402473495037905E-007
2.8188096E+004	2.6331100E+002	3.4080048E+001	2.6550732E+002	-7.3747301E+000	2.048049321272993E+001	3.3313420E+000	-2.5600414E-003	1.6567393E-001	2.7296161E-003	1.000000000000000E+000	11	1.3963996E-001	5.2593637E-004	-5.481053845804106E-005	1.5673955E-003	3.7352184E-003	4.8344510E-004	3.7663744E-003	7.3747301E+000	-8.281703636279760E-007
2.5116910E+004	2.6525748E+002	3.3281116E+001	2.6733716E+002	-7.1513724E+000	2.107547948099091E+001	3.3313394E+000	-2.5765963E-003	1.9039521E-001	2.9507549E-003	1.000000000000000E+000	11	1.2953834E-001	4.8455046E-004	-5.548436233236195E-005	8.4601698E-004	3.7114958E-003	4.6567104E-004	3.7405950E-003	7.1513724E+000	-6.738238743208893E-007
2.2389027E+004	2.6713104E+002	3.2573982E+001	2.6910974E+002	-6.9523292E+000	2.153547843618435E+001	3.3313532E+000	-2.5354866E-003	2.1822980E-001	3.1973997E-003	1.000000000000000E+000	11	1.3264351E-001	4.9289747E-004	-5.599827897871708E-005	1.0864765E-003	3.6886334E-003	4.4979231E-004	3.7159561E-003	6.9523292E+000	-5.139166463551269E-007
1.9948783E+004	2.6894016E+002	3.2005703E+001	2.7083792E+002	-6.7866678E+000	2.199448349801241E+001	3.3313434E+000	-2.6015248E-003	2.4927363E-001	3.4810652E-003	1.000000000000000E+000	11	1.3525844E-001	4.9940730E-004	-5.639176712902695E-005	7.6586381E-004	3.6663737E-003	4.3632335E-004	3.6922451E-003	6.7866678E+000	-3.934881503098753E-007
1.7786895E+004	2.7072101E+002	3.1571980E+001	2.7255579E+002	-6.6518903E+000	2.245347503977246E+001	3.3313448E+000	-2.6080350E-003	2.8341198E-001	3.8028660E-003	1.000000000000000E+000	11	1.3740960E-001	5.0415221E-004	-5.718505562079028E-005	1.1666296E-003	3.6442750E-003	4.2500201E-004	3.6689737E-003	6.6518903E+000	-7.932884917633329E-007
1.5847686E+004	2.7249963E+002	3.1276846E+001	2.7428870E+002	-6.5476184E+000	2.291249074161169E+001	3.3313558E+000	-2.5955711E-003	3.2109338E-001	4.1750474E-003	1.000000000000000E+000	11	1.3920118E-001	5.0749880E-004	-5.790736360758173E-005	6.8571063E-004	3.6220138E-003	4.1572595E-004	3.6457938E-003	6.5476184E+000	-7.223079867914428E-007
1.4121879E+004	2.7419281E+002	3.1087946E+001	2.7594955E+002	-6.4685650E+000	2.337247924346593E+001	3.3313553E+000	-2.6240326E-003	3.6252305E-001	4.6010851E-003	1.000000000000000E+000	11	1.4064507E-001	5.0967676E-004	-5.789833483971314E-005	7.6586381E-004	3.6007806E-003	4.0825605E-004	3.6238506E-003	6.4685650E+000	9.028767868586650E-009
1.2590932E+004	2.7592023E+002	3.1004835E+001	2.7765674E+002	-6.4113660E+000	2.396748391169240E+001	3.3313572E+000	-2.5693423E-003	4.0769261E-001	5.0836457E-003	1.000000000000000E+000	11	1.2937853E-001	4.6596574E-004	-5.832747590425222E-005	6.0555746E-004	3.5790445E-003	4.0217309E-004	3.6015694E-003	6.4113660E+000	-4.291410645390837E-007
1.1217711E+004	2.7767374E+002	3.1077232E+001	2.7940741E+002	-6.3859658E+000	2.442647910685628E+001	3.3313704E+000	-2.5416249E-003	4.5653448E-001	5.6478404E-003	1.000000000000000E+000	11	1.3023189E-001	4.6610032E-004	-5.829371367163266E-005	1.2467828E-003	3.5567961E-003	3.9807646E-004	3.5790030E-003	6.3859658E+000	3.376223261956289E-008
1.0002229E+004	2.7942191E+002	3.1258055E+001	2.8116483E+002	-6.3829627E+000	2.488548728861497E+001	3.3313749E+000	-2.3766239E-003	5.0905108E-001	6.2916316E-003	1.000000000000000E+000	11	1.3090867E-001	4.6559403E-004	-5.848727409001367E-005	1.4070892E-003	3.5345852E-003	3.9540304E-004	3.5566327E-003	6.3829627E+000	-1.935604183810093E-007
8.9149297E+003	2.8125870E+002	3.1553167E+001	2.8302307E+002	-6.4009957E+000	2.536791965825250E+001	3.3314245E+000	-2.3243520E-003	5.6579518E-001	7.0323665E-003	1.000000000000000E+000	11	1.3144337E-001	4.6442632E-004	-5.908766069139165E-005	1.4872423E-003	3.5112544E-003	3.9391208E-004	3.5332809E-003	6.4009957E+000	-6.003866013779802E-007
7.9439976E+003	2.8310889E+002	3.1985380E+001	2.8491000E+002	-6.4458909E+000	2.589398432322196E+001	3.3314161E+000	-2.4205253E-003	6.2636793E-001	7.8943642E-003	1.000000000000000E+000	11	1.3185944E-001	4.6281086E-004	-5.897996904779050E-005	1.0063233E-003	3.4876920E-003	3.9403618E-004	3.5098803E-003	6.4458909E+000	1.076916436011538E-007
7.0822334E+003	2.8502997E+002	3.2519581E+001	2.8687909E+002	-6.5088339E+000	2.647085728397360E+001	3.3314168E+000	-2.5133498E-003	6.9104278E-001	8.8796746E-003	1.000000000000000E+000	11	1.3218677E-001	4.6077519E-004	-5.940307787830170E-005	1.4070892E-003	3.4633211E-003	3.9513651E-004	3.4857891E-003	6.5088339E+000	-4.231088305112050E-007
6.3077344E+003	2.8701624E+002	3.3175205E+001	2.8892719E+002	-6.5933595E+000	2.710555072742864E+001	3.3314047E+000	-2.6796530E-003	7.6055938E-001	1.0027289E-002	1.000000000000000E+000	11	1.3245647E-001	4.5844237E-004	-6.028599494191965E-005	1.4070892E-003	3.4381885E-003	3.9740815E-004	3.4610797E-003	6.5933595E+000	-8.829170636179523E-007
5.6210552E+003	2.8911334E+002	3.3934601E+001	2.9109805E+002	-6.6944466E+000	2.780628340071416E+001	3.3314381E+000	-2.5951988E-003	8.3437163E-001	1.1338782E-002	1.000000000000000E+000	11	1.3264945E-001	4.5568650E-004	-6.047509005796383E-005	1.3269359E-003	3.4118467E-003	4.0046460E-004	3.4352685E-003	6.6944466E+000	-1.890951160441720E-007
5.0116035E+003	2.9132288E+002	3.4773159E+001	2.9339084E+002	-6.8067889E+000	2.856668613020156E+001	3.3314366E+000	-2.5529719E-003	9.1327024E-001	1.2829049E-002	1.000000000000000E+000	11	1.3280298E-001	4.5264870E-004	-6.113907222021428E-005	1.2467828E-003	3.3843983E-003	4.0397179E-004	3.4084227E-003	6.8067889E+000	-6.639821622504518E-007
4.4664292E+003	2.9363907E+002	3.5694283E+001	2.9580057E+002	-6.9307775E+000	2.932670600630081E+001	3.3314395E+000	-2.5555769E-003	9.9829990E-001	1.4536516E-002	1.000000000000000E+000	11	1.3291904E-001	4.4935360E-004	-6.156398865463942E-005	1.2467828E-003	3.3559524E-003	4.0794411E-004	3.3806560E-003	6.9307775E+000	-4.249164344251403E-007
3.9812742E+003	2.9606573E+002	3.6722591E+001	2.9833450E+002	-7.0705843E+000	3.008570014901488E+001	3.3314354E+000	-2.6005940E-003	1.0885910E+000	1.6493939E-002	1.000000000000000E+000	11	1.3300934E-001	4.4583963E-004	-6.249819571308317E-005	1.4872423E-003	3.3264516E-003	4.1259726E-004	3.3519422E-003	7.0705843E+000	-9.342070584437566E-007
3.5465955E+003	2.9867795E+002	3.7778576E+001	3.0105771E+002	-7.2088318E+000	3.084496762507479E+001	3.3314395E+000	-2.6104532E-003	1.1878536E+000	1.8704865E-002	1.000000000000000E+000	11	1.3307709E-001	4.4203180E-004	-6.269326265114998E-005	1.2467828E-003	3.2953662E-003	4.1681764E-004	3.3216223E-003	7.2088318E+000	-1.950669380668048E-007
3.1610112E+003	3.0142978E+002	3.8864098E+001	3.0392487E+002	-7.3467579E+000	3.160466648783040E+001	3.3314424E+000	-2.6007802E-003	1.2955242E+000	2.1184111E-002	1.000000000000000E+000	11	1.3312545E-001	4.3802094E-004	-6.290266110017668E-005	7.6586381E-004	3.2632751E-003	4.2074226E-004	3.2902870E-003	7.3467579E+000	-2.093984490267000E-007
2.8172952E+003	3.0435947E+002	3.9976616E+001	3.0697363E+002	-7.4827781E+000	3.236393407054129E+001	3.3314431E+000	-2.6245911E-003	1.4131287E+000	2.3965785E-002	1.000000000000000E+000	11	1.3315874E-001	4.3377909E-004	-6.316746251888940E-005	1.6475486E-003	3.2298672E-003	4.2423245E-004	3.2576087E-003	7.4827781E+000	-2.648014187127200E-007
2.5108032E+003	3.0765063E+002	4.1020237E+001	3.1037329E+002	-7.5946708E+000	3.312368775998038E+001	3.3314359E+000	-2.6195685E-003	1.5452875E+000	2.6992116E-002	1.000000000000000E+000	11	1.3320117E-001	4.2916441E-004	-6.404703636206048E-005	1.5673955E-003	3.1936634E-003	4.2582335E-004	3.2219267E-003	7.5946708E+000	-8.795738431710770E-007
2.2378516E+003	3.1079797E+002	4.2138599E+001	3.1364157E+002	-7.7211924E+000	3.388394014272490E+001	3.3314357E+000	-2.6059877E-003	1.6877526E+000	3.0465037E-002	1.000000000000000E+000	11	1.3320127E-001	4.2469264E-004	-6.497050126079436E-005	1.1666296E-003	3.1594459E-003	4.2836386E-004	3.1883528E-003	7.7211924E+000	-9.234648987338804E-007
1.9956389E+003	3.1425919E+002	4.3107616E+001	3.1720200E+002	-7.8106413E+000	3.464369711217296E+001	3.3314390E+000	-2.6372408E-003	1.8500530E+000	3.4168065E-002	1.000000000000000E+000	11	1.3320242E-001	4.1992930E-004	-6.535877205244024E-005	8.4601698E-004	3.1233178E-003	4.2843231E-004	3.1525653E-003	7.8106413E+000	-3.882707916458853E-007
1.7782927E+003	3.1792654E+002	4.3990952E+001	3.2095560E+002	-7.8778968E+000	3.540296736155869E+001	3.3314362E+000	-2.6647726E-003	2.0344806E+000	3.8219970E-002	1.000000000000000E+000	11	1.3321096E-001	4.1504481E-004	-6.620219459596289E-005	1.2467828E-003	3.0862910E-003	4.2704481E-004	3.1156957E-003	7.8778968E+000	-8.434225435226511E-007
1.5855076E+003	3.2170081E+002	4.4788773E+001	3.2480371E+002	-7.9260511E+000	3.616267281099135E+001	3.3314123E+000	-2.7096034E-003	2.2412105E+000	4.2616621E-002	1.000000000000000E+000	11	1.3320717E-001	4.1011593E-004	-6.690966312281631E-005	1.0864765E-003	3.0493704E-003	4.2454837E-004	3.0787825E-003	7.9260511E+000	-7.074685268534145E-007
1.4118373E+003	3.2568848E+002	4.5386734E+001	3.2883572E+002	-7.9334335E+000	3.692421156712226E+001	3.3314302E+000	-2.6171510E-003	2.4837425E+000	4.7315829E-002	1.000000000000000E+000	11	1.3320349E-001	4.0507611E-004	-6.772512167433928E-005	9.2617015E-004	3.0119268E-003	4.1973090E-004	3.0410322E-003	7.9334335E+000	-8.154585515229769E-007
1.2587914E+003	3.2974051E+002	4.5792645E+001	3.3290506E+002	-7.9063702E+000	3.768393328323145E+001	3.3314390E+000	-2.5831084E-003	2.7610269E+000	5.2242178E-002	1.000000000000000E+000	11	1.3320029E-001	4.0011495E-004	-6.860281099202459E-005	1.4070892E-003	2.9753053E-003	4.1319488E-004	3.0038594E-003	7.9063702E+000	-8.776893176853007E-007
1.1217948E+003	3.3385696E+002	4.5962185E+001	3.3700592E+002	-7.8386521E+000	3.869443810454686E+001	3.3314261E+000	-1.7274758E-004	3.0867827E+000	5.7415918E-002	1.000000000000000E+000	12	1.3378260E-001	3.9697401E-004	-6.836771514467505E-005	8.4601698E-004	2.9395805E-003	4.0469290E-004	2.9673069E-003	7.8386521E+000	2.350958473495344E-007
1.0003201E+003	3.3799612E+002	4.5930061E+001	3.4110254E+002	-7.7384839E+000	3.945370363397524E+001	3.3314314E+000	-2.0540619E-004	3.4640498E+000	6.2807031E-002	1.000000000000000E+000	12	1.3372883E-001	3.9204877E-004	-6.809151189809928E-005	1.0063233E-003	2.9049711E-003	3.9475452E-004	2.9316698E-003	7.7384839E+000	2.762032465757742E-007
8.9142657E+002	3.4219711E+002	4.5629410E+001	3.4522589E+002	-7.5951576E+000	4.021241676327190E+001	3.3314312E+000	-1.7166774E-004	3.9128182E+000	6.8355374E-002	1.000000000000000E+000	12	1.3367392E-001	3.8720711E-004	-6.781759510157725E-005	1.5673955E-003	2.8712410E-003	3.8285836E-004	2.8966542E-003	7.5951576E+000	2.739167965220293E-007
7.9423773E+002	3.4632156E+002	4.5096951E+001	3.4924542E+002	-7.4191375E+000	4.097192565273144E+001	3.3314266E+000	-2.4601564E-004	4.4434719E+000	7.4089274E-002	1.000000000000000E+000	12	1.3362089E-001	3.8259881E-004	-6.797713095388018E-005	1.0063233E-003	2.8393446E-003	3.6973090E-004	2.8633161E-003	7.4191375E+000	-1.595358523029286E-007
7.0750946E+002	3.5036993E+002	4.4343346E+001	3.5316486E+002	-7.2130904E+000	4.173444579556235E+001	3.3314347E+000	-1.8285828E-004	5.0729361E+000	7.9976313E-002	1.000000000000000E+000	12	1.3356361E-001	3.7819054E-004	-6.778561288253493E-005	1.6475486E-003	2.8091301E-003	3.5552774E-004	2.8315389E-003	7.2130904E+000	1.915180713452487E-007
6.3100964E+002	3.5424490E+002	4.3382153E+001	3.5689139E+002	-6.9818902E+000	4.249244791161618E+001	3.3314297E+000	-1.9190734E-004	5.8139734E+000	8.5905924E-002	1.000000000000000E+000	12	1.3351098E-001	3.7409415E-004	-6.764432072881068E-005	1.2467828E-003	2.7811953E-003	3.4059555E-004	2.8019729E-003	6.9818902E+000	1.412921537242518E-007
5.6233929E+002	3.5795490E+002	4.2233246E+001	3.6043771E+002	-6.7289248E+000	4.324894248088822E+001	3.3314269E+000	-2.0028649E-004	6.7014260E+000	9.2005908E-002	1.000000000000000E+000	12	1.3346088E-001	3.7027444E-004	-6.786780198808305E-005	1.2467828E-003	2.7552932E-003	3.2508280E-004	2.7744044E-003	6.7289248E+000	-2.234812592723706E-007
5.0144415E+002	3.6144397E+002	4.0967369E+001	3.6375827E+002	-6.4665141E+000	4.400618289018166E+001	3.3314211E+000	-2.1387881E-004	7.7474627E+000	9.8267496E-002	1.000000000000000E+000	12	1.3341358E-001	3.6676441E-004	-6.760659530467214E-005	1.0864765E-003	2.7315884E-003	3.0960812E-004	2.7490784E-003	6.4665141E+000	2.612066834109083E-007
4.4685895E+002	3.6475900E+002	3.9579956E+001	3.6690012E+002	-6.1929283E+000	4.476292753947200E+001	3.3314319E+000	-1.8952391E-004	8.9985876E+000	1.0471991E-001	1.000000000000000E+000	12	1.3337909E-001	3.6352969E-004	-6.799536508164561E-005	8.4601698E-004	2.7096320E-003	2.9402185E-004	2.7255374E-003	6.1929283E+000	-3.887697769734704E-007
3.9808920E+002	3.6782471E+002	3.8110210E+001	3.6979373E+002	-5.9152927E+000	4.552572026904090E+001	3.3314283E+000	-1.9935545E-004	1.0490553E+001	1.1141970E-001	1.000000000000000E+000	12	1.3334495E-001	3.6059276E-004	-6.815829291406286E-005	1.2467828E-003	2.6898114E-003	2.7869060E-004	2.7042103E-003	5.9152927E+000	-1.629278324172500E-007
3.5465955E+002	3.7065762E+002	3.6625240E+001	3.7246274E+002	-5.6431637E+000	4.628596438514069E+001	3.3314252E+000	-2.0985692E-004	1.2252592E+001	1.1847407E-001	1.000000000000000E+000	12	1.3331150E-001	3.5791902E-004	-6.828602869749375E-005	1.2467828E-003	2.6718206E-003	2.6400661E-004	2.6848323E-003	5.6431637E+000	-1.277357834308945E-007
3.1631586E+002	3.7325476E+002	3.5150459E+001	3.7490622E+002	-5.3798399E+000	4.704290420774487E+001	3.3314264E+000	-2.1415784E-004	1.4314236E+001	1.2583019E-001	1.000000000000000E+000	12	1.3328755E-001	3.5552238E-004	-6.826154347201494E-005	1.2467828E-003	2.6555841E-003	2.5008389E-004	2.6673337E-003	5.3798399E+000	2.448522547881377E-008
2.8189429E+002	3.7565723E+002	3.3700802E+001	3.7716586E+002	-5.1263714E+000	4.779842536363867E+001	3.3314328E+000	-2.0255822E-004	1.6753038E+001	1.3375479E-001	1.000000000000000E+000	12	1.3326079E-001	3.5332143E-004	-6.821071823328182E-005	8.4601698E-004	2.6407482E-003	2.3690567E-004	2.6513534E-003	5.1263714E+000	5.082523873311704E-008
2.5104436E+002	3.7786697E+002	3.2307678E+001	3.7924561E+002	-4.8869119E+000	4.855490275958437E+001	3.3314233E+000	-2.3700373E-004	1.9622932E+001	1.4240797E-001	1.000000000000000E+000	12	1.3324465E-001	3.5134132E-004	-6.786575494257098E-005	9.2617015E-004	2.6272284E-003	2.2462838E-004	2.6368138E-003	4.8869119E+000	3.449632907108382E-007
2.2392513E+002	3.7987531E+002	3.1057644E+001	3.8114279E+002	-4.6739626E+000	4.931773887581949E+001	3.3314178E+000	-2.0922355E-004	2.2884890E+001	1.5195340E-001	1.000000000000000E+000	12	1.3323008E-001	3.4955423E-004	-6.757341473094857E-005	6.8571063E-004	2.6149636E-003	2.1379282E-004	2.6236887E-003	4.6739626E+000	2.923402116224134E-007
1.9955299E+002	3.8172919E+002	2.9847391E+001	3.8289429E+002	-4.4708586E+000	5.007818285856047E+001	3.3314269E+000	-2.1985557E-004	2.6721170E+001	1.6237175E-001	1.000000000000000E+000	12	1.3321093E-001	3.4790524E-004	-6.767175231413583E-005	1.2467828E-003	2.6037400E-003	2.0358633E-004	2.6116869E-003	4.4708586E+000	-9.833758318725954E-008
1.7778128E+002	3.8348773E+002	2.8790003E+001	3.8456689E+002	-4.2933764E+000	5.084627438840107E+001	3.3314226E+000	-1.4288265E-004	3.1095133E+001	1.7427377E-001	1.000000000000000E+000	12	1.3319960E-001	3.4636262E-004	-6.799311240646057E-005	1.2467828E-003	2.5930307E-003	1.9466951E-004	2.6003278E-003	4.2933764E+000	-3.213600923247453E-007
1.5842838E+002	3.8509848E+002	2.7846830E+001	3.8610397E+002	-4.1359124E+000	5.161271807816229E+001	3.3314245E+000	-2.0401063E-004	3.6075420E+001	1.8765251E-001	1.000000000000000E+000	12	1.3319345E-001	3.4496782E-004	-6.782669554179543E-005	6.8571063E-004	2.5832311E-003	1.8679583E-004	2.5899759E-003	4.1359124E+000	1.664168646651402E-007
1.4131134E+002	3.8660153E+002	2.7028915E+001	3.8754523E+002	-3.9992776E+000	5.236588510058937E+001	3.3314276E+000	-1.9054853E-004	4.1669136E+001	2.0268750E-001	1.000000000000000E+000	12	1.3318503E-001	3.4366318E-004	-6.801173078730709E-005	1.2467828E-003	2.5740606E-003	1.7996324E-004	2.5803440E-003	3.9992776E+000	-1.850352455116543E-007
1.2584569E+002	3.8806403E+002	2.6345333E+001	3.8895728E+002	-3.8838017E+000	5.312138961642631E+001	3.3314233E+000	-2.1095556E-004	4.8004070E+001	2.2023264E-001	1.000000000000000E+000	12	1.3317780E-001	3.4239699E-004	-6.796910500394895E-005	7.6586381E-004	2.5650722E-003	1.7414054E-004	2.5709765E-003	3.8838017E+000	4.262578335814020E-008
1.1218996E+002	3.8944202E+002	2.5810467E+001	3.9029639E+002	-3.7917616E+000	5.386682826522156E+001	3.3314283E+000	-2.1723055E-004	5.4962986E+001	2.4036595E-001	1.000000000000000E+000	12	1.3317022E-001	3.4120280E-004	-6.801087779006291E-005	1.0063233E-003	2.5565468E-003	1.6943645E-004	2.5621555E-003	3.7917616E+000	-4.177278611395847E-008
1.0003201E+002	3.9079736E+002	2.5413448E+001	3.9162280E+002	-3.7206905E+000	5.462670387465187E+001	3.3314228E+000	-2.2668918E-004	6.2606232E+001	2.6363847E-001	1.000000000000000E+000	12	1.3316721E-001	3.4003946E-004	-6.827232143959797E-005	8.4601698E-004	2.5480953E-003	1.6570196E-004	2.5534774E-003	3.7206905E+000	-2.614436495350673E-007
8.9115974E+001	3.9211499E+002	2.5141712E+001	3.9292020E+002	-3.6686807E+000	5.539374348441197E+001	3.3314335E+000	-1.7084919E-004	7.1034561E+001	2.9083771E-001	1.000000000000000E+000	12	1.3316423E-001	3.3890910E-004	-6.849705797420514E-005	1.5673955E-003	2.5398307E-003	1.6284939E-004	2.5450462E-003	3.6686807E+000	-2.247365346071654E-007
7.9415527E+001	3.9341364E+002	2.4998402E+001	3.9420706E+002	-3.6358168E+000	5.615825165403658E+001	3.3314276E+000	-2.0572403E-004	8.0168259E+001	3.2238746E-001	1.000000000000000E+000	12	1.3315362E-001	3.3777583E-004	-6.830285742276384E-005	1.1666296E-003	2.5316321E-003	1.6086569E-004	2.5367378E-003	3.6358168E+000	1.942005514413039E-007
7.0838745E+001	3.9473181E+002	2.4960268E+001	3.9552017E+002	-3.6181946E+000	5.690936198303825E+001	3.3314273E+000	-2.0441998E-004	9.0011917E+001	3.5847697E-001	1.000000000000000E+000	12	1.3315441E-001	3.3665643E-004	-6.838214177845334E-005	1.4872423E-003	2.5232765E-003	1.5955557E-004	2.5283161E-003	3.6181946E+000	-7.928435568950465E-008
6.3082302E+001	3.9602371E+002	2.5058300E+001	3.9681570E+002	-3.6205492E+000	5.768983290014148E+001	3.3314333E+000	-2.4188255E-004	1.0068413E+002	4.0150088E-001	1.000000000000000E+000	12	1.3315010E-001	3.3554644E-004	-6.861444904954746E-005	9.2617015E-004	2.5150320E-003	1.5913800E-004	2.5200616E-003	3.6205492E+000	-2.323072710941148E-007
5.6241817E+001	3.9734247E+002	2.5280497E+001	3.9814587E+002	-3.6404767E+000	5.843333050873480E+001	3.3314302E+000	-1.8481392E-004	1.1193740E+002	4.5129651E-001	1.000000000000000E+000	12	1.3314374E-001	3.3440944E-004	-6.847331126012352E-005	1.5673955E-003	2.5065739E-003	1.5947814E-004	2.5116422E-003	3.6404767E+000	1.411377894239383E-007
5.0144413E+001	3.9872885E+002	2.5637520E+001	3.9955222E+002	-3.6789474E+000	5.919018390469137E+001	3.3314312E+000	-2.3080427E-004	1.2380026E+002	5.0971389E-001	1.000000000000000E+000	12	1.3314410E-001	3.3323327E-004	-6.833948160225878E-005	1.2467828E-003	2.4976442E-003	1.6059386E-004	2.5028018E-003	3.6789474E+000	1.338296578647417E-007
4.4671219E+001	4.0011816E+002	2.6074444E+001	4.0096686E+002	-3.7285140E+000	5.995422786098788E+001	3.3314319E+000	-2.0710174E-004	1.3663982E+002	5.7781714E-001	1.000000000000000E+000	12	1.3314876E-001	3.3206923E-004	-6.854162610282057E-005	1.6475486E-003	2.4886930E-003	1.6218029E-004	2.4939717E-003	3.7285140E+000	-2.021445005617940E-007
3.9808922E+001	4.0154443E+002	2.6634232E+001	4.0242679E+002	-3.7948403E+000	6.071670064391219E+001	3.3314297E+000	-2.5748616E-004	1.5010652E+002	6.5751570E-001	1.000000000000000E+000	12	1.3314334E-001	3.3085106E-004	-6.836819229869111E-005	1.4070892E-003	2.4794755E-003	1.6446231E-004	2.4849239E-003	3.7948403E+000	1.734338041294589E-007
3.5465305E+001	4.0304114E+002	2.7314009E+001	4.0396561E+002	-3.8769941E+000	6.146713558616466E+001	3.3314321E+000	-1.9604187E-004	1.6429752E+002	7.5112653E-001	1.000000000000000E+000	12	1.3314262E-001	3.2958901E-004	-6.886450431999806E-005	1.3269359E-003	2.4697932E-003	1.6737734E-004	2.4754582E-003	3.8769941E+000	-4.963120213069479E-007
3.1629551E+001	4.0460428E+002	2.8100166E+001	4.0557889E+002	-3.9728692E+000	6.219145471390220E+001	3.3314292E+000	-2.3203339E-004	1.7906810E+002	8.5957807E-001	1.000000000000000E+000	12	1.3314642E-001	3.2828737E-004	-6.874113376528597E-005	1.3269359E-003	2.4596867E-003	1.7082767E-004	2.4656116E-003	3.9728692E+000	1.233705547120897E-007
2.8170074E+001	4.0620966E+002	2.8973007E+001	4.0724161E+002	-4.0797272E+000	6.299677024553239E+001	3.3314197E+000	-2.5422781E-004	1.9500177E+002	9.8700970E-001	1.000000000000000E+000	12	1.3314867E-001	3.2695252E-004	-6.796032775568326E-005	1.5673955E-003	2.4493223E-003	1.7469854E-004	2.4555447E-003	4.0797272E+000	7.808060096027049E-007
2.5104435E+001	4.0789063E+002	2.9986835E+001	4.0899139E+002	-4.2046413E+000	6.375292902809451E+001	3.3314250E+000	-1.7773891E-004	2.1141658E+002	1.1365067E+000	1.000000000000000E+000	12	1.3314568E-001	3.2554640E-004	-6.787233318693184E-005	1.2467828E-003	2.4384584E-003	1.7926779E-004	2.4450391E-003	4.2046413E+000	8.799456875142626E-008
2.2385387E+001	4.0963037E+002	3.1098000E+001	4.1080911E+002	-4.3414087E+000	6.443842668729485E+001	3.3314238E+000	-1.5982703E-004	2.2862466E+002	1.3101102E+000	1.000000000000000E+000	12	1.3313805E-001	3.2408736E-004	-6.885666534811915E-005	1.5673955E-003	2.4272362E-003	1.8426903E-004	2.4342206E-003	4.3414087E+000	-9.843321611873113E-007
1.9955299E+001	4.1151437E+002	3.2310760E+001	4.1278088E+002	-4.4894662E+000	6.520019648349262E+001	3.3314152E+000	-2.3573890E-004	2.4683952E+002	1.5124114E+000	1.000000000000000E+000	12	1.3314050E-001	3.2254524E-004	-6.901183937730659E-005	1.5673955E-003	2.4151597E-003	1.8963042E-004	2.4225928E-003	4.4894662E+000	-1.551740291874377E-007
1.7796129E+001	4.1342673E+002	3.3637177E+001	4.1479288E+002	-4.6514463E+000	6.604453223026940E+001	3.3314207E+000	-2.7835844E-004	2.6587350E+002	1.7484432E+000	1.000000000000000E+000	12	1.3313615E-001	3.2097020E-004	-6.922317120636985E-005	1.4070892E-003	2.4029016E-003	1.9550459E-004	2.4108419E-003	4.6514463E+000	-2.113318290632659E-007
1.5857576E+001	4.1547769E+002	3.5017918E+001	4.1695081E+002	-4.8177028E+000	6.676691010460490E+001	3.3314264E+000	-2.6402139E-004	2.8661108E+002	2.0216408E+000	1.000000000000000E+000	12	1.3313927E-001	3.1931649E-004	-6.790229922400613E-005	1.4872423E-003	2.3898908E-003	2.0142838E-004	2.3983645E-003	4.8177028E+000	1.320871982363723E-006
1.4118974E+001	4.1762192E+002	3.6560291E+001	4.1921918E+002	-5.0031466E+000	6.756925235598465E+001	3.3314359E+000	-1.7008645E-004	3.0832401E+002	2.3450081E+000	1.000000000000000E+000	12	1.3313596E-001	3.1758079E-004	-6.942191072145539E-005	1.3269359E-003	2.3762984E-003	2.0803067E-004	2.3853870E-003	5.0031466E+000	-1.519611497449258E-006
1.2600808E+001	4.1987793E+002	3.8191566E+001	4.2161127E+002	-5.1972504E+000	6.845984807834611E+001	3.3314209E+000	-3.1493671E-004	3.3071527E+002	2.7137187E+000	1.000000000000000E+000	12	1.3314131E-001	3.1579164E-004	-6.939333210992642E-005	1.2467828E-003	2.3621020E-003	2.1485382E-004	2.3718532E-003	5.1972504E+000	2.857861152896323E-008
1.1224856E+001	4.2224701E+002	3.9948753E+001	4.2413257E+002	-5.4046612E+000	6.914393867083709E+001	3.3314099E+000	-3.5745438E-004	3.5492459E+002	3.1487582E+000	1.000000000000000E+000	12	1.3313062E-001	3.1388918E-004	-6.921176896490134E-005	9.2617015E-004	2.3472717E-003	2.2207516E-004	2.3577535E-003	5.4046612E+000	1.815631450250820E-007
1.0003201E+001	4.2474969E+002	4.1789364E+001	4.2680048E+002	-5.6190109E+000	6.990467321364849E+001	3.3314304E+000	-2.7908530E-004	3.8072849E+002	3.6500359E+000	1.000000000000000E+000	12	1.3313580E-001	3.1193919E-004	-6.734120648107961E-005	1.2467828E-003	2.3317570E-003	2.2941192E-004	2.3430153E-003	5.6190109E+000	1.870562483821735E-006
8.9183798E+000	4.2740207E+002	4.3749771E+001	4.2963541E+002	-5.8445597E+000	7.074803773369058E+001	3.3314214E+000	-1.8767263E-004	4.0790439E+002	4.2297025E+000	1.000000000000000E+000	12	1.3313785E-001	3.0988565E-004	-7.018412925883846E-005	1.3269359E-003	2.3154558E-003	2.3701490E-004	2.3275549E-003	5.8445597E+000	-2.842922777758852E-006
7.9395342E+000	4.3020935E+002	4.5890247E+001	4.3264996E+002	-6.0886927E+000	7.168671220495889E+001	3.3314281E+000	-3.0462173E-004	4.3682224E+002	4.9144192E+000	1.000000000000000E+000	12	1.3313375E-001	3.0771701E-004	-6.732956638221529E-005	1.5673955E-003	2.2982988E-003	2.4515853E-004	2.3113373E-003	6.0886927E+000	2.854562876623170E-006
7.0765405E+000	4.3301566E+002	4.8072342E+001	4.3567593E+002	-6.3348966E+000	7.224501527144457E+001	3.3314075E+000	-1.4133865E-004	4.6784698E+002	5.6959643E+000	1.000000000000000E+000	12	1.3313442E-001	3.0558131E-004	-6.758191824500116E-005	9.2617015E-004	2.2812688E-003	2.5326089E-004	2.2952841E-003	6.3348966E+000	-2.523518627858666E-007
6.3105822E+000	4.3608203E+002	5.0309410E+001	4.3897446E+002	-6.5809402E+000	7.286518466091366E+001	3.3314080E+000	2.1880036E-005	5.0130438E+002	6.5844789E+000	1.000000000000000E+000	12	1.3314165E-001	3.0330158E-004	-6.883114772567043E-005	1.6475486E-003	2.2630268E-003	2.6107827E-004	2.2780369E-003	6.5809402E+000	-1.249229480669277E-006
5.6205034E+000	4.3936240E+002	5.2895462E+001	4.4253503E+002	-6.8648806E+000	7.355166130687576E+001	3.3314106E+000	-9.1586910E-005	5.3533606E+002	7.6483550E+000	1.000000000000000E+000	12	1.3313127E-001	3.0083780E-004	-7.100190938395503E-005	1.3269359E-003	2.2435077E-003	2.7009906E-004	2.2597080E-003	6.8648806E+000	-2.170761658284594E-006
5.0144415E+000	4.4280627E+002	5.5254341E+001	4.4624033E+002	-7.1127295E+000	7.430917459612829E+001	3.3314340E+000	-3.2410712E-004	5.7442212E+002	8.8069668E+000	1.000000000000000E+000	12	1.3313141E-001	2.9834016E-004	-7.205259523721745E-005	1.0864765E-003	2.2236996E-003	2.7747816E-004	2.2409449E-003	7.1127295E+000	-1.050685853262419E-006
4.4693937E+000	4.4620831E+002	5.7967258E+001	4.4995786E+002	-7.4018836E+000	7.515052399606793E+001	3.3314192E+000	-6.4615952E-004	6.1431165E+002	1.0195548E+001	1.000000000000000E+000	12	1.3313568E-001	2.9588476E-004	-6.864181615314657E-005	1.5673955E-003	2.2039108E-003	2.8631170E-004	2.2224304E-003	7.4018836E+000	3.410779084070880E-006
3.9778514E+000	4.5021576E+002	6.0841167E+001	4.5430814E+002	-7.6962018E+000	7.608717028060346E+001	3.3314207E+000	-2.6690881E-004	6.5761853E+002	1.1794188E+001	1.000000000000000E+000	12	1.3313001E-001	2.9303902E-004	-6.630728627997450E-005	1.0063233E-003	2.1813214E-003	2.9477899E-004	2.2011492E-003	7.6962018E+000	2.334529873172068E-006
3.5511365E+000	4.5394891E+002	6.3772091E+001	4.5840646E+002	-7.9967489E+000	7.712843857004191E+001	3.3314285E+000	-1.9613721E-005	7.0278436E+002	1.3601348E+001	1.000000000000000E+000	12	1.3313639E-001	2.9043306E-004	-7.192956520252321E-005	1.3269359E-003	2.1602574E-003	3.0347938E-004	2.1814702E-003	7.9967489E+000	-5.622278922548708E-006
3.1603966E+000	4.5831766E+002	6.6765640E+001	4.6315518E+002	-8.2882881E+000	7.829024502521497E+001	3.3314223E+000	-3.3985055E-004	7.5426776E+002	1.5673952E+001	1.000000000000000E+000	12	1.3313425E-001	2.8745062E-004	-7.146982296018541E-005	1.3269359E-003	2.1365522E-003	3.1124326E-004	2.1591035E-003	8.2882881E+000	4.597422423377999E-007
2.8183618E+000	4.6263669E+002	7.0149124E+001	4.6792477E+002	-8.6220236E+000	7.958470122009021E+001	3.3314290E+000	-2.8590614E-004	8.0500977E+002	1.8092291E+001	1.000000000000000E+000	12	1.3312823E-001	2.8450775E-004	-6.516283277738451E-005	1.3269359E-003	2.1129439E-003	3.2038355E-004	2.1370957E-003	8.6220236E+000	6.306990182800896E-006
2.5136740E+000	4.6706534E+002	7.3424194E+001	4.7280139E+002	-8.9339676E+000	8.102871416867856E+001	3.3314385E+000	7.5547883E-005	8.6232703E+002	2.0796625E+001	1.000000000000000E+000	12	1.3313216E-001	2.8158157E-004	-7.382882698578518E-005	1.3269359E-003	2.0893931E-003	3.2845940E-004	2.1150529E-003	8.9339676E+000	-8.665994208400664E-006
2.2398219E+000	4.7200195E+002	7.6878586E+001	4.7822186E+002	-9.2509680E+000	8.264332837864640E+001	3.3314350E+000	-3.8044617E-004	9.2427509E+002	2.3886536E+001	1.000000000000000E+000	12	1.3313437E-001	2.7839455E-004	-6.916082453958046E-005	1.8078550E-003	2.0638823E-003	3.3616039E-004	2.0910797E-003	9.2509680E+000	4.668002446204714E-006
1.9970604E+000	4.7713324E+002	8.0633331E+001	4.8389862E+002	-9.5920944E+000	8.444670929102722E+001	3.3314342E+000	-1.8099458E-004	9.8835809E+002	2.7443199E+001	1.000000000000000E+000	12	1.3312936E-001	2.7511828E-004	-6.676009180275934E-005	1.0864765E-003	2.0376563E-003	3.4435457E-004	2.0665487E-003	9.5920944E+000	2.400732736821120E-006
1.7796129E+000	4.8239212E+002	8.4617622E+001	4.8975739E+002	-9.9491777E+000	8.646491573352250E+001	3.3314359E+000	-7.7266755E-005	1.0568997E+003	3.1549568E+001	1.000000000000000E+000	12	1.3313593E-001	2.7184057E-004	-7.639523167483760E-005	1.0063233E-003	2.0111210E-003	3.5277582E-004	2.0418272E-003	9.9491777E+000	-9.635139872078260E-006
1.5846854E+000	4.8794983E+002	8.8599968E+001	4.9592841E+002	-1.0291413E+001	8.872409626751323E+001	3.3314326E+000	-3.3173585E-004	1.1335574E+003	3.6180344E+001	1.000000000000000E+000	12	1.3313165E-001	2.6844934E-004	-6.246601563425955E-005	1.0063233E-003	1.9839795E-003	3.6024305E-004	2.0164200E-003	1.0291413E+001	1.392921604057805E-005
1.4122382E+000	4.9378787E+002	9.2744225E+001	5.0242209E+002	-1.0637477E+001	9.125312630759436E+001	3.3314393E+000	1.9830915E-005	1.2151371E+003	4.1405838E+001	1.000000000000000E+000	12	1.3312930E-001	2.6497501E-004	-7.755494061664569E-005	1.7277019E-003	1.9561537E-003	3.6740871E-004	1.9903583E-003	1.0637477E+001	-1.508892498238614E-005
1.2596743E+000	4.9996530E+002	9.7047623E+001	5.0929712E+002	-1.0985004E+001	9.408191489533056E+001	3.3314385E+000	-3.4245331E-004	1.3018979E+003	4.7272038E+001	1.000000000000000E+000	12	1.3313353E-001	2.6140641E-004	-6.510472693494214E-005	1.6475486E-003	1.9275135E-003	3.7414717E-004	1.9634904E-003	1.0985004E+001	1.245021368170355E-005
1.1224856E+000	5.0651395E+002	1.0168187E+002	5.1661938E+002	-1.1351158E+001	9.725011021908722E+001	3.3314340E+000	-6.0620503E-005	1.3944271E+003	5.4018368E+001	1.000000000000000E+000	12	1.3312811E-001	2.5769087E-004	-7.292225322071156E-005	1.7277019E-003	1.8977982E-003	3.8097997E-004	1.9356610E-003	1.1351158E+001	-7.817526285769423E-006
1.0000638E+000	5.1335016E+002	1.0655089E+002	5.2429138E+002	-1.1725810E+001	1.007991709210037E+002	3.3314378E+000	-2.1219785E-004	1.4936036E+003	6.1688480E+001	1.000000000000000E+000	12	1.3313067E-001	2.5392495E-004	-7.187329392059554E-005	1.4070892E-003	1.8675327E-003	3.8762487E-004	1.9073363E-003	1.1725810E+001	1.048959300116022E-006