EC-Lab ASCII FILE
Nb header lines : 60                          

Potentio Electrochemical Impedance Spectroscopy

Run on channel : 13 (SN 41494)
User : 
CE vs. WE compliance from -10 V to 10 V
Electrode connection : standard
Ewe ctrl range : min = -10.00 V, max = 10.00 V
Acquisition started on : 12/03/2020 16:52:36
Technique started on : 12/03/2020 16:52:37
Saved on :
	File : DE_206_13_30.mpr
	Directory : P:\Chemistry\Data\VMP3\Kyler\DOE\DE_206\
	Host : 10.0.4.64
Device : VMP3 (SN 1432)
Address : USB
EC-Lab for windows v11.33 (software)
Internet server v11.32 (firmware)
Command interpretor v11.33 (firmware)
Electrode material : 
Initial state : 
Electrolyte : 
Comments : 
Electrode surface area : 0.001 cm²
Characteristic mass : 0.001 g
Equivalent Weight : 0.000 g/eq.
Density : 0.000 g/cm3
Record Analogic IN 1
Cycle Definition : Charge/Discharge alternance
Mode                Single sine         
E (V)               0.0000              
vs.                 Eoc                 
tE (h:m:s)          0:00:0.0000         
record              0                   
dI                  1.000               
unit dI             mA                  
dt (s)              0.000               
fi                  1.000               
unit fi             MHz                 
ff                  1.000               
unit ff             Hz                  
Nd                  20                  
Points              per decade          
spacing             Logarithmic         
Va (mV)             128.0               
pw                  0.50                
Na                  3                   
corr                0                   
E range min (V)     -10.000             
E range max (V)     10.000              
I Range             Auto                
Bandwidth           5                   
nc cycles           0                   
goto Ns'            0                   
nr cycles           0                   
inc. cycle          1                   

freq/Hz	Re(Z)/Ohm	-Im(Z)/Ohm	|Z|/Ohm	Phase(Z)/deg	time/s	<Ewe>/V	<I>/mA	Cs/µF	Cp/µF	cycle number	I Range	|Ewe|/V	|I|/A	(Q-Qo)/mA.h	Analog IN 1/V	Re(Y)/Ohm-1	Im(Y)/Ohm-1	|Y|/Ohm-1	Phase(Y)/deg	dq/mA.h	
1.0000186E+006	-5.2425319E-001	-3.4144325E+000	3.4544451E+000	9.8729042E+001	1.941600092250155E+000	3.3019803E+000	2.8056659E-002	-4.6611547E-002	-4.5538004E-002	1.000000000000000E+000	9	8.8981709E-005	2.5758611E-005	2.983278692328086E-006	-3.9277249E-004	-4.3932337E-002	-2.8612903E-001	2.8948209E-001	-9.8729042E+001	2.983278692328086E-006
8.9124669E+005	8.2204118E-002	-4.0919833E+000	4.0928087E+000	8.8849136E+001	2.270600107876817E+000	3.3014438E+000	1.9096162E-002	-4.3640364E-002	-4.3622762E-002	1.000000000000000E+000	9	8.3267892E-005	2.0344927E-005	5.818414912164573E-006	-5.5306475E-004	4.9073901E-003	-2.4428169E-001	2.4433099E-001	-8.8849136E+001	2.835136219836487E-006
7.9433269E+005	-2.1676011E+000	-3.3092065E+000	3.9559250E+000	1.2322565E+002	2.599600123503478E+000	3.3011544E+000	1.7158760E-002	-6.0547169E-002	-4.2368732E-002	1.000000000000000E+000	9	3.1512234E-005	7.9658321E-006	8.516167723407206E-006	-1.5233411E-004	-1.3851067E-001	-2.1145979E-001	2.5278538E-001	-1.2322565E+002	2.697752811242632E-006
7.0794981E+005	3.2620296E-001	-3.8099647E+000	3.8239036E+000	8.5106361E+001	3.304477410245454E+000	3.3010159E+000	9.5768031E-003	-5.9006073E-002	-5.8576677E-002	1.000000000000000E+000	9	1.0011598E-004	2.6181617E-005	1.286679625908275E-005	-7.2187977E-005	2.2308696E-002	-2.6055959E-001	2.6151288E-001	-8.5106361E+001	4.350628535675544E-006
6.3095681E+005	2.1565118E+000	-4.4319696E+000	4.9287825E+000	6.4053329E+001	3.900489038584055E+000	3.3009667E+000	1.4383058E-002	-5.6914605E-002	-4.6019085E-002	1.000000000000000E+000	9	3.2973624E-004	6.6900138E-005	1.425670053263861E-005	-5.5306475E-004	8.8771291E-002	-1.8243891E-001	2.0288986E-001	-6.4053329E+001	1.389904273555861E-006
5.6234225E+005	2.7023776E+000	-4.0355806E+000	4.8568258E+000	5.6192238E+001	4.495480026846053E+000	3.3009565E+000	1.2874121E-002	-7.0131548E-002	-4.8419509E-002	1.000000000000000E+000	9	6.8436895E-004	1.4090868E-004	1.676860734025508E-005	-3.9277249E-004	1.1456211E-001	-1.7108069E-001	2.0589580E-001	-5.6192238E+001	2.511906807616469E-006
5.0120619E+005	2.9653716E+000	-3.5341063E+000	4.6133866E+000	5.0000908E+001	5.092495228542248E+000	3.3009737E+000	6.4471578E-003	-8.9851245E-002	-5.2728280E-002	1.000000000000000E+000	9	1.1677321E-003	2.5311820E-004	1.897184162467683E-005	-3.1262636E-004	1.3932833E-001	-1.6605039E-001	2.1676050E-001	-5.0000908E+001	2.203234284421747E-006
4.4668572E+005	3.2852180E+000	-3.0437858E+000	4.4785366E+000	4.2815399E+001	5.687482083420036E+000	3.3010018E+000	4.0626656E-003	-1.1705878E-001	-5.4070435E-002	1.000000000000000E+000	9	1.8025445E-003	4.0248514E-004	2.054979888951897E-005	-9.5379539E-004	1.6379173E-001	-1.5175459E-001	2.2328722E-001	-4.2815399E+001	1.577957264842147E-006
3.9810347E+005	3.5008607E+000	-2.6519945E+000	4.3919358E+000	3.7144890E+001	6.283484965068055E+000	3.3010075E+000	4.0440378E-003	-1.5074800E-001	-5.4964822E-002	1.000000000000000E+000	9	2.6221124E-003	5.9702888E-004	2.334727815379220E-005	-3.9277249E-004	1.8149425E-001	-1.3748668E-001	2.2769003E-001	-3.7144890E+001	2.797479264273230E-006
3.5480997E+005	3.5954320E+000	-2.2779918E+000	4.2563338E+000	3.2357506E+001	6.879491500061704E+000	3.3009951E+000	-1.3210747E-003	-1.9691201E-001	-5.6403376E-002	1.000000000000000E+000	9	3.6410494E-003	8.5544266E-004	2.357481621569928E-005	-3.9277249E-004	1.9846307E-001	-1.2574212E-001	2.3494397E-001	-3.2357506E+001	2.275380619070747E-007
3.1622997E+005	3.6588819E+000	-1.9209245E+000	4.1324773E+000	2.7699614E+001	7.474477154988563E+000	3.3009989E+000	-1.8799369E-003	-2.6200333E-001	-5.6611735E-002	1.000000000000000E+000	9	4.9409936E-003	1.1956493E-003	2.389551926778060E-005	-2.3248023E-004	2.1425328E-001	-1.1248364E-001	2.4198560E-001	-2.7699614E+001	3.207030520813251E-007
2.8183453E+005	3.7339005E+000	-1.5961843E+000	4.0607657E+000	2.3145952E+001	8.069478756602621E+000	3.3009548E+000	-3.8173436E-003	-3.5378784E-001	-5.4662950E-002	1.000000000000000E+000	9	6.6047725E-003	1.6264846E-003	2.371125557481880E-005	-6.3321088E-004	2.2643673E-001	-9.6798174E-002	2.4625897E-001	-2.3145952E+001	-1.842636929618009E-007
2.5118764E+005	3.7830696E+000	-1.3169054E+000	4.0057278E+000	1.9193262E+001	8.665478704875568E+000	3.3009348E+000	-3.8173345E-003	-4.8113540E-001	-5.2001223E-002	1.000000000000000E+000	9	8.7889042E-003	2.1940842E-003	2.059784537580951E-005	-7.9350313E-004	2.3576616E-001	-8.2071371E-002	2.4964252E-001	-1.9193262E+001	-3.113410199009294E-006
2.2387173E+005	3.8247607E+000	-1.0505018E+000	3.9664025E+000	1.5358043E+001	9.260495666501811E+000	3.3009079E+000	-5.1213126E-003	-6.7674345E-001	-4.7470532E-002	1.000000000000000E+000	9	1.1719889E-002	2.9547906E-003	1.679035272899394E-005	-3.9277249E-004	2.4311441E-001	-6.6773370E-002	2.5211763E-001	-1.5358043E+001	-3.807492646815567E-006
1.9954350E+005	3.8693225E+000	-8.0952317E-001	3.9530981E+000	1.1816735E+001	9.857487988163484E+000	3.3009186E+000	4.5098895E-003	-9.8526555E-001	-4.1317750E-002	1.000000000000000E+000	9	1.5779063E-002	3.9915689E-003	1.129430195006232E-005	-3.1262636E-004	2.4760520E-001	-5.1802907E-002	2.5296617E-001	-1.1816735E+001	-5.496050778931627E-006
1.7783180E+005	3.9110217E+000	-5.9634185E-001	3.9562247E+000	8.6695280E+000	1.045249713645899E+001	3.3009205E+000	5.9780583E-004	-1.5007744E+000	-3.4099195E-002	1.000000000000000E+000	9	2.1549286E-002	5.4469318E-003	1.639730619543439E-005	-2.3248023E-004	2.4987817E-001	-3.8100738E-002	2.5276622E-001	-8.6695280E+000	5.103004245372075E-006
1.5848613E+005	3.9463975E+000	-3.9315420E-001	3.9659328E+000	5.6892381E+000	1.104747436472098E+001	3.3008964E+000	1.8646419E-003	-2.5542650E+000	-2.5101582E-002	1.000000000000000E+000	9	2.9897757E-002	7.5386441E-003	2.860013093618262E-006	-1.0339415E-003	2.5090548E-001	-2.4996098E-002	2.5214750E-001	-5.6892381E+000	-1.353729310181613E-005
1.4125594E+005	3.9801610E+000	-2.0421201E-001	3.9853964E+000	2.9371262E+000	1.164249351297622E+001	3.3008831E+000	-5.6054411E-003	-5.5173707E+000	-1.4486105E-002	1.000000000000000E+000	9	4.2324007E-002	1.0619774E-002	-1.600887444475666E-005	-7.1335700E-004	2.5058645E-001	-1.2856958E-002	2.5091606E-001	-2.9371262E+000	-1.886888753837492E-005
1.2590930E+005	4.0144305E+000	-2.4011107E-002	4.0145025E+000	3.4269336E-001	1.223948476798250E+001	3.3009140E+000	7.6957354E-003	-5.2644154E+001	-1.8832634E-003	1.000000000000000E+000	9	6.5370098E-002	1.6283486E-002	1.278620017982191E-005	-2.3248023E-004	2.4909241E-001	-1.4898713E-003	2.4909687E-001	-3.4269336E-001	2.879507462457857E-005
1.1220494E+005	4.0520716E+000	1.4850298E-001	4.0547919E+000	-2.0988741E+000	1.297148565607495E+001	3.3010356E+000	3.7223034E-002	9.5515308E+000	1.2811682E-002	1.000000000000000E+000	9	1.5079927E-001	3.7190385E-002	1.074336660730963E-005	-3.1262636E-004	2.4645631E-001	9.0322932E-003	2.4662177E-001	2.0988741E+000	-2.042833572512285E-006
1.0000371E+005	4.0815573E+000	3.2597241E-001	4.0945535E+000	-4.5662193E+000	1.411047597686411E+001	3.3011744E+000	4.4953845E-002	4.8822856E+000	3.0943664E-002	1.000000000000000E+000	9	1.1626349E-001	2.8394667E-002	4.530224467063737E-005	-7.9350313E-004	2.4345170E-001	1.9443201E-002	2.4422687E-001	4.5662193E+000	3.455887806332774E-005
8.9129305E+004	4.1151767E+000	5.0042677E-001	4.1454921E+000	-6.9334207E+000	1.470548336513457E+001	3.3011928E+000	4.4748902E-002	3.5682812E+000	5.1998161E-002	1.000000000000000E+000	9	1.1976922E-001	2.8891437E-002	-1.684936523463370E-005	-7.2187977E-005	2.3946182E-001	2.9119799E-002	2.4122588E-001	6.9334207E+000	-6.215160990527107E-005
7.9433273E+004	4.1527681E+000	6.7571712E-001	4.2073836E+000	-9.2418804E+000	1.530149027341395E+001	3.3012054E+000	3.6049236E-002	2.9651916E+000	7.6481849E-002	1.000000000000000E+000	9	1.2870935E-001	3.0591302E-002	-1.946467538271099E-005	-3.9277249E-004	2.3459214E-001	3.8171630E-002	2.3767740E-001	9.2418804E+000	-2.615310148077293E-006
7.0794977E+004	4.1938210E+000	8.5499340E-001	4.2800875E+000	-1.1522968E+001	1.589749262170517E+001	3.3012748E+000	5.9316728E-002	2.6293893E+000	1.0492408E-001	1.000000000000000E+000	9	1.3350751E-001	3.1192705E-002	-4.892597925533644E-005	-5.5306475E-004	2.2893101E-001	4.6672117E-002	2.3364009E-001	1.1522968E+001	-2.946130387262545E-005
6.3093828E+004	4.2382836E+000	1.0394561E+000	4.3638878E+000	-1.3780030E+001	1.649447249007062E+001	3.3012598E+000	4.4935290E-002	2.4267614E+000	1.3768679E-001	1.000000000000000E+000	9	1.3505030E-001	3.0947244E-002	-5.600373022097887E-005	-3.9277249E-004	2.2255783E-001	5.4583203E-002	2.2915347E-001	1.3780030E+001	-7.077750965642427E-006
5.6237012E+004	4.2873240E+000	1.2297816E+000	4.4602141E+000	-1.6005077E+001	1.709048926507239E+001	3.3012402E+000	3.7558191E-002	2.3012824E+000	1.7495021E-001	1.000000000000000E+000	9	1.3454138E-001	3.0164780E-002	-1.018681568964902E-004	-3.1262636E-004	2.1551371E-001	6.1818227E-002	2.2420448E-001	1.6005077E+001	-4.586442667551132E-005
5.0122477E+004	4.3417659E+000	1.4292697E+000	4.5709672E+000	-1.8221073E+001	1.768648558671703E+001	3.3012812E+000	4.7114786E-002	2.2216387E+000	2.1721289E-001	1.000000000000000E+000	9	1.3304399E-001	2.9106310E-002	-1.399613358445155E-004	-7.2187977E-005	2.0780222E-001	6.8406597E-002	2.1877208E-001	1.8221073E+001	-3.809317894802533E-005
4.4666715E+004	4.4030261E+000	1.6385193E+000	4.6980190E+000	-2.0411985E+001	1.814648824857431E+001	3.3012810E+000	3.6440399E-002	2.1746259E+000	2.6451975E-001	1.000000000000000E+000	9	1.3668190E-001	2.9093519E-002	-1.482778632524423E-004	-4.7291862E-004	1.9949026E-001	7.4237265E-002	2.1285567E-001	2.0411985E+001	-8.316527407926813E-006
3.9814063E+004	4.4656363E+000	1.8628228E+000	4.8385963E+000	-2.2643267E+001	1.860648909708834E+001	3.3010092E+000	-7.0952461E-003	2.1459131E+000	3.1806538E-001	1.000000000000000E+000	9	1.3816607E-001	2.8554991E-002	-1.424422946358617E-004	-6.3321088E-004	1.9074121E-001	7.9566956E-002	2.0667151E-001	2.2643267E+001	5.835568616580647E-006
3.5480996E+004	4.5596266E+000	2.0773201E+000	5.0105343E+000	-2.4493532E+001	1.936848721324350E+001	3.3013425E+000	-9.7996872E-003	2.1593394E+000	3.7115872E-001	1.000000000000000E+000	10	1.1844144E-001	2.3638485E-002	-1.187719990429468E-004	-5.5306475E-004	1.8161896E-001	8.2743771E-002	1.9957951E-001	2.4493532E+001	2.367029559291485E-005
3.1621143E+004	4.6432614E+000	2.3310969E+000	5.1955643E+000	-2.6658421E+001	1.982849296843051E+001	3.3013370E+000	-9.2349891E-003	2.1591473E+000	4.3464777E-001	1.000000000000000E+000	10	1.3511236E-001	2.6005330E-002	-1.417719300480870E-004	-5.5306475E-004	1.7201158E-001	8.6356468E-002	1.9247188E-001	2.6658421E+001	-2.299993100514016E-005
2.8188096E+004	4.7358623E+000	2.6023629E+000	5.4037657E+000	-2.8788855E+001	2.042447662338964E+001	3.3013461E+000	-1.0144370E-002	2.1696343E+000	5.0318676E-001	1.000000000000000E+000	10	1.3208643E-001	2.4443405E-002	-1.821176664347553E-004	-4.7291862E-004	1.6218327E-001	8.9119926E-002	1.8505614E-001	2.8788855E+001	-4.034573638666834E-005
2.5116910E+004	4.8408127E+000	2.8950093E+000	5.6404386E+000	-3.0881195E+001	2.102048747838126E+001	3.3013461E+000	-1.1465367E-002	2.1887891E+000	5.7660460E-001	1.000000000000000E+000	10	1.3127106E-001	2.3273202E-002	-2.321781599617356E-004	1.6825041E-004	1.5215722E-001	9.0996400E-002	1.7729118E-001	3.0881195E+001	-5.006049352698029E-005
2.2389027E+004	4.9583659E+000	3.2090492E+000	5.9062161E+000	-3.2910900E+001	2.161647716004518E+001	3.3013513E+000	-9.5593454E-003	2.2151775E+000	6.5394711E-001	1.000000000000000E+000	10	1.3064902E-001	2.2120595E-002	-2.583669413119658E-004	-4.7291862E-004	1.4214118E-001	9.1993608E-002	1.6931313E-001	3.2910900E+001	-2.618878135023019E-005
1.9948783E+004	5.0923400E+000	3.5481951E+000	6.2065783E+000	-3.4867668E+001	2.221248788168305E+001	3.3013525E+000	-1.0966044E-002	2.2485173E+000	7.3486364E-001	1.000000000000000E+000	10	1.2998503E-001	2.0943107E-002	-2.945674607108813E-004	-7.1335700E-004	1.3219436E-001	9.2109203E-002	1.6111937E-001	3.4867668E+001	-3.620051939891544E-005
1.7786895E+004	5.2415609E+000	3.9121881E+000	6.5405793E+000	-3.6736866E+001	2.267248427684535E+001	3.3013530E+000	-1.0574773E-002	2.2871797E+000	8.1829011E-001	1.000000000000000E+000	10	1.3733163E-001	2.0996861E-002	-3.029193243259668E-004	-6.3321088E-004	1.2252598E-001	9.1450751E-002	1.5289165E-001	3.6736866E+001	-8.351863615085507E-006
1.5847686E+004	5.4105167E+000	4.3084297E+000	6.9163761E+000	-3.8530537E+001	2.326848206514842E+001	3.3013463E+000	-1.3019330E-002	2.3309624E+000	9.0451568E-001	1.000000000000000E+000	10	1.2980850E-001	1.8768283E-002	-3.044157015938416E-004	-2.3248023E-004	1.1310493E-001	9.0066195E-002	1.4458439E-001	3.8530537E+001	-1.496377267874791E-006
1.4121879E+004	5.5975657E+000	4.7306938E+000	7.3288612E+000	-4.0202293E+001	2.372848814036115E+001	3.3013420E+000	-1.2833044E-002	2.3823349E+000	9.9261194E-001	1.000000000000000E+000	10	1.3196711E-001	1.8006496E-002	-3.005233972146590E-004	-5.5306475E-004	1.0421403E-001	8.8074841E-002	1.3644685E-001	4.0202293E+001	3.892304379182580E-006
1.2590932E+004	5.7968345E+000	5.1709952E+000	7.7680421E+000	-4.1734165E+001	2.418749666880467E+001	3.3013489E+000	-1.2942989E-002	2.4444892E+000	1.0832115E+000	1.000000000000000E+000	10	1.3241543E-001	1.7046178E-002	-2.848162620912513E-004	-3.9277249E-004	9.6065566E-002	8.5694104E-002	1.2873256E-001	4.1734165E+001	1.570713512340769E-005
1.1217711E+004	6.0342069E+000	5.6600828E+000	8.2733421E+000	-4.3167618E+001	2.464649277061108E+001	3.3013415E+000	-1.2883414E-002	2.5066466E+000	1.1732126E+000	1.000000000000000E+000	10	1.3171400E-001	1.5920289E-002	-2.837154846358527E-004	-6.3321088E-004	8.8157289E-002	8.2691491E-002	1.2087014E-001	4.3167618E+001	1.100777455398589E-006
1.0002229E+004	6.3020458E+000	6.1836538E+000	8.8291197E+000	-4.4456726E+001	2.510548620574991E+001	3.3013370E+000	-1.3965914E-002	2.5732272E+000	1.2622160E+000	1.000000000000000E+000	10	1.3032976E-001	1.4761354E-002	-2.870604302668427E-004	-7.9350313E-004	8.0843806E-002	7.9325050E-002	1.1326157E-001	4.4456726E+001	-3.344945630989976E-006
8.9149297E+003	6.6060548E+000	6.7492332E+000	9.4441576E+000	-4.5614231E+001	2.558790724203573E+001	3.3013589E+000	-6.6733919E-003	2.6451347E+000	1.3509218E+000	1.000000000000000E+000	10	1.2863496E-001	1.3620586E-002	-2.959466594998311E-004	-3.1262636E-004	7.4065454E-002	7.5670741E-002	1.0588557E-001	4.5614231E+001	-8.886229232988436E-006
7.9439976E+003	6.9493256E+000	7.3559227E+000	1.0119423E+001	-4.6628075E+001	2.611399532033829E+001	3.3013785E+000	-9.6094859E-004	2.7236035E+000	1.4391521E+000	1.000000000000000E+000	10	1.2686288E-001	1.2536573E-002	-2.857571683733776E-004	-1.5233411E-004	6.7862704E-002	7.1833275E-002	9.8819867E-002	4.6628075E+001	1.018949112645355E-005
7.0822334E+003	7.3337846E+000	8.0026770E+000	1.0854825E+001	-4.7497345E+001	2.669086180109298E+001	3.3013892E+000	1.7443973E-003	2.8081133E+000	1.5262986E+000	1.000000000000000E+000	10	1.2517762E-001	1.1531980E-002	-2.876485842549397E-004	-3.1262636E-004	6.2241849E-002	6.7918740E-002	9.2124932E-002	4.7497345E+001	-1.891415881562165E-006
6.3077344E+003	7.7693057E+000	8.6963263E+000	1.1661398E+001	-4.8222370E+001	2.732454889782821E+001	3.3013904E+000	3.0579439E-003	2.9014220E+000	1.6135459E+000	1.000000000000000E+000	10	1.2364900E-001	1.0603274E-002	-2.905561964772124E-004	-7.2187977E-005	5.7132199E-002	6.3949123E-002	8.5753009E-002	4.8222370E+001	-2.907612222272679E-006
5.6210552E+003	8.2554274E+000	9.4295940E+000	1.2532730E+001	-4.8798481E+001	2.802525362445158E+001	3.3014166E+000	6.4023612E-003	3.0026815E+000	1.6998237E+000	1.000000000000000E+000	10	1.2228296E-001	9.7570885E-003	-2.855027234195214E-004	-3.1262636E-004	5.2559134E-002	6.0034603E-002	7.9791076E-002	4.8798481E+001	5.053473057690982E-006
5.0116035E+003	8.7975445E+000	1.0203931E+001	1.3472824E+001	-4.9233006E+001	2.878566694060282E+001	3.3014514E+000	9.2921704E-003	3.1122601E+000	1.7852278E+000	1.000000000000000E+000	10	1.2110346E-001	8.9887213E-003	-2.863934325467045E-004	-2.3248023E-004	4.8466783E-002	5.6214742E-002	7.4223489E-002	4.9233006E+001	-8.907091271830535E-007
4.4664292E+003	9.4050369E+000	1.1027928E+001	1.4493789E+001	-4.9541191E+001	2.954569228336914E+001	3.3014498E+000	8.9101922E-003	3.2312140E+000	1.8706380E+000	1.000000000000000E+000	10	1.2009639E-001	8.2860589E-003	-2.910714142510616E-004	-3.1262636E-004	4.4770986E-002	5.2496467E-002	6.8995073E-002	4.9541191E+001	-4.677981704357098E-006
3.9812742E+003	1.0081042E+001	1.1891971E+001	1.5589945E+001	-4.9711441E+001	3.030469253275078E+001	3.3014450E+000	8.9101922E-003	3.3615859E+000	1.9559723E+000	1.000000000000000E+000	10	1.1924576E-001	7.6488890E-003	-2.896891669135334E-004	-3.1262636E-004	4.1477855E-002	4.8928812E-002	6.4143911E-002	4.9711441E+001	1.382247337528193E-006
3.5465955E+003	1.0837413E+001	1.2804699E+001	1.6775274E+001	-4.9756683E+001	3.106496382216574E+001	3.3014455E+000	9.1020735E-003	3.5046051E+000	2.0419195E+000	1.000000000000000E+000	10	1.1851875E-001	7.0650852E-003	-2.932933913215270E-004	-7.1335700E-004	3.8511142E-002	4.5501959E-002	5.9611544E-002	4.9756683E+001	-3.604224407993640E-006
3.1610112E+003	1.1670573E+001	1.3750729E+001	1.8035654E+001	-4.9677937E+001	3.182471337827883E+001	3.3014495E+000	9.8175099E-003	3.6615791E+000	2.1284137E+000	1.000000000000000E+000	10	1.1791497E-001	6.5378821E-003	-2.950626457617101E-004	-6.3321088E-004	3.5878014E-002	4.2272892E-002	5.5445731E-002	4.9677937E+001	-1.769254440183051E-006
2.8172952E+003	1.2591969E+001	1.4733580E+001	1.9381332E+001	-4.9481335E+001	3.258494149436592E+001	3.3014464E+000	8.5877683E-003	3.8342419E+000	2.2157910E+000	1.000000000000000E+000	10	1.1741016E-001	6.0578994E-003	-2.912456270085337E-004	-7.2187977E-005	3.3521727E-002	3.9223019E-002	5.1596042E-002	4.9481335E+001	3.817018753176347E-006
2.5108032E+003	1.3605725E+001	1.5749846E+001	2.0812819E+001	-4.9177448E+001	3.334469998381246E+001	3.3014441E+000	9.5808413E-003	4.0246778E+000	2.3047402E+000	1.000000000000000E+000	10	1.1698431E-001	5.6207818E-003	-2.849921859864456E-004	-6.3321088E-004	3.1409416E-002	3.6359217E-002	4.8047312E-002	4.9177448E+001	6.253441022088108E-006
2.2378516E+003	1.4715607E+001	1.6792778E+001	2.2328154E+001	-4.8771732E+001	3.410493937990395E+001	3.3014555E+000	9.0498272E-003	4.2351260E+000	2.3955531E+000	1.000000000000000E+000	10	1.1663558E-001	5.2237003E-003	-2.832947737811547E-004	-6.3321088E-004	2.9517021E-002	3.3683475E-002	4.4786505E-002	4.8771732E+001	1.697412205290891E-006
1.9956389E+003	1.5927587E+001	1.7856707E+001	2.3928017E+001	-4.8268105E+001	3.486470922933950E+001	3.3014445E+000	7.6859640E-003	4.4661860E+000	2.4872885E+000	1.000000000000000E+000	10	1.1634912E-001	4.8624640E-003	-2.808136987385547E-004	-4.7291862E-004	2.7818682E-002	3.1188032E-002	4.1792013E-002	4.8268105E+001	2.481075042600042E-006
1.7782927E+003	1.7251923E+001	1.8940117E+001	2.5619463E+001	-4.7670654E+001	3.562492691876832E+001	3.3014455E+000	9.0870885E-003	4.7253528E+000	2.5826139E+000	1.000000000000000E+000	10	1.1610044E-001	4.5317281E-003	-2.826700510309957E-004	-1.5233411E-004	2.6284363E-002	2.8856432E-002	3.9032824E-002	4.7670654E+001	-1.856352292441046E-006
1.5855076E+003	1.8684839E+001	2.0028675E+001	2.7391077E+001	-4.6988071E+001	3.638469362153410E+001	3.3014421E+000	7.8592300E-003	5.0118675E+000	2.6796978E+000	1.000000000000000E+000	10	1.1590447E-001	4.2314683E-003	-2.793315588745496E-004	-4.7291862E-004	2.4904119E-002	2.6695251E-002	3.6508240E-002	4.6988071E+001	3.338492156446159E-006
1.4118373E+003	2.0248466E+001	2.1136143E+001	2.9270069E+001	-4.6228771E+001	3.714618555098423E+001	3.3014479E+000	8.8541638E-003	5.3334689E+000	2.7810817E+000	1.000000000000000E+000	10	1.1573822E-001	3.9541493E-003	-2.802515077864907E-004	7.9581514E-006	2.3634404E-002	2.4670515E-002	3.4164593E-002	4.6228771E+001	-9.199489119410980E-007
1.2587914E+003	2.1916183E+001	2.2217598E+001	3.1208023E+001	-4.5391300E+001	3.790594849377521E+001	3.3014412E+000	8.9808656E-003	5.6907468E+000	2.8842371E+000	1.000000000000000E+000	10	1.1560418E-001	3.7043097E-003	-2.772877337339645E-004	-5.5306475E-004	2.2502584E-002	2.2812065E-002	3.2043044E-002	4.5391300E+001	2.963774052526210E-006
1.1217948E+003	2.3743784E+001	2.3255648E+001	3.3235409E+001	-4.4404949E+001	3.891543504837318E+001	3.3014202E+000	-2.3499436E-003	6.1006799E+000	2.9869852E+000	1.000000000000000E+000	11	1.1976969E-001	3.6036773E-003	-2.758146859961820E-004	-8.7364926E-004	2.1495515E-002	2.1053601E-002	3.0088391E-002	4.4404949E+001	1.473047737782414E-006
1.0003201E+003	2.5660566E+001	2.4296612E+001	3.5338223E+001	-4.3436073E+001	3.967469679113856E+001	3.3014221E+000	-2.4929123E-003	6.5484033E+000	3.0955474E+000	1.000000000000000E+000	11	1.1891752E-001	3.3651248E-003	-2.745040072043193E-004	-1.1942338E-003	2.0548344E-002	1.9456124E-002	2.8297972E-002	4.3436073E+001	1.310678791862697E-006
8.9142657E+002	2.7712391E+001	2.5301960E+001	3.7525536E+001	-4.2396694E+001	4.043345640043844E+001	3.3014245E+000	-2.1852211E-003	7.0563540E+000	3.2080040E+000	1.000000000000000E+000	11	1.1820632E-001	3.1500235E-003	-2.731372490616050E-004	7.9581514E-006	1.9679779E-002	1.7968025E-002	2.6648520E-002	4.2396694E+001	1.366758142714393E-006
7.9423773E+002	2.9898247E+001	2.6252718E+001	3.9788319E+001	-4.1285358E+001	4.119293216988444E+001	3.3014257E+000	-2.1018349E-003	7.6330018E+000	3.3230183E+000	1.000000000000000E+000	11	1.1762622E-001	2.9563003E-003	-2.733606403825753E-004	7.9581514E-006	1.8885763E-002	1.6582999E-002	2.5133004E-002	4.1285358E+001	-2.233913209703526E-007
7.0750946E+002	3.2213512E+001	2.7133745E+001	4.2118290E+001	-4.0107754E+001	4.195544927273295E+001	3.3014333E+000	-2.1770392E-003	8.2904510E+000	3.4407742E+000	1.000000000000000E+000	11	1.1715467E-001	2.7815627E-003	-2.735823021702753E-004	-3.1262636E-004	1.8159194E-002	1.5295662E-002	2.3742653E-002	4.0107754E+001	-2.216617877000087E-007
6.3100964E+002	3.4617699E+001	2.7919046E+001	4.4473118E+001	-3.8886051E+001	4.271344298878103E+001	3.3014252E+000	-2.1052042E-003	9.0340719E+000	3.5603244E+000	1.000000000000000E+000	11	1.1676148E-001	2.6254393E-003	-2.737031300570687E-004	7.9581514E-006	1.7502617E-002	1.4115798E-002	2.2485493E-002	3.8886051E+001	-1.208278867933458E-007
5.6233929E+002	3.7150558E+001	2.8600868E+001	4.6884686E+001	-3.7591370E+001	4.346993897139328E+001	3.3014274E+000	-2.1934500E-003	9.8956079E+000	3.6824672E+000	1.000000000000000E+000	11	1.1643963E-001	2.4835323E-003	-2.762102230142725E-004	-5.5306475E-004	1.6900647E-002	1.3011196E-002	2.1328926E-002	3.7591370E+001	-2.507092957203792E-006
5.0144415E+002	3.9768059E+001	2.9160198E+001	4.9313442E+001	-3.6250988E+001	4.422717687397380E+001	3.3014314E+000	-2.1664563E-003	1.0884465E+001	3.8059003E+000	1.000000000000000E+000	11	1.1617566E-001	2.3558619E-003	-2.748384957802612E-004	-5.5306475E-004	1.6353237E-002	1.1991123E-002	2.0278446E-002	3.6250988E+001	1.371727234011303E-006
4.4685895E+002	4.2486015E+001	2.9578533E+001	5.1768246E+001	-3.4845425E+001	4.498393610995845E+001	3.3014283E+000	-2.2178360E-003	1.2041290E+001	3.9309671E+000	1.000000000000000E+000	11	1.1595602E-001	2.2399062E-003	-2.776505148962671E-004	-1.5233411E-004	1.5853280E-002	1.1036967E-002	1.9316861E-002	3.4845425E+001	-2.812019116005910E-006
3.9808920E+002	4.5272018E+001	2.9847204E+001	5.4225559E+001	-3.3396301E+001	4.574673022620846E+001	3.3014188E+000	-2.2038731E-003	1.3394794E+001	4.0582175E+000	1.000000000000000E+000	11	1.1577976E-001	2.1351511E-003	-2.781595232998176E-004	-1.5233411E-004	1.5396492E-002	1.0150690E-002	1.8441487E-002	3.3396301E+001	-5.090084035505788E-007
3.5465955E+002	4.8093445E+001	2.9944752E+001	5.6653927E+001	-3.1907915E+001	4.650694087563897E+001	3.3014243E+000	-2.2885751E-003	1.4986070E+001	4.1866741E+000	1.000000000000000E+000	11	1.1562473E-001	2.0408952E-003	-2.795469159837101E-004	-7.2187977E-005	1.4983933E-002	9.3295490E-003	1.7651027E-002	3.1907915E+001	-1.387392683892448E-006
3.1631586E+002	5.0903297E+001	2.9868826E+001	5.9019424E+001	-3.0403381E+001	4.726390069824993E+001	3.3014243E+000	-2.1802320E-003	1.6845387E+001	4.3144693E+000	1.000000000000000E+000	11	1.1550864E-001	1.9571292E-003	-2.790349999412170E-004	-3.1262636E-004	1.4613559E-002	8.5748825E-003	1.6943574E-002	3.0403381E+001	5.119160424930762E-007
2.8189429E+002	5.3712318E+001	2.9616344E+001	6.1336296E+001	-2.8871828E+001	4.801942777409568E+001	3.3014233E+000	-2.2543198E-003	1.9063490E+001	4.4445748E+000	1.000000000000000E+000	11	1.1541226E-001	1.8816307E-003	-2.795524414869465E-004	-1.5233411E-004	1.4277061E-002	7.8722043E-003	1.6303560E-002	2.8871828E+001	-5.174415457295128E-007
2.5104436E+002	5.6487179E+001	2.9182470E+001	6.3580013E+001	-2.7321831E+001	4.877590807672823E+001	3.3014317E+000	-2.2582344E-003	2.1724390E+001	4.5766792E+000	1.000000000000000E+000	11	1.1532741E-001	1.8138941E-003	-2.779201288918784E-004	7.9581514E-006	1.3973611E-002	7.2190627E-003	1.5728213E-002	2.7321831E+001	1.632312595068158E-006
2.2392513E+002	5.9144901E+001	2.8592081E+001	6.5693428E+001	-2.5800251E+001	4.953869200631743E+001	3.3014264E+000	-2.0920082E-003	2.4858307E+001	4.7088976E+000	1.000000000000000E+000	11	1.1525720E-001	1.7544706E-003	-2.765604916929409E-004	-3.9277249E-004	1.3704823E-002	6.6252449E-003	1.5222223E-002	2.5800251E+001	1.359637198937425E-006
1.9955299E+002	6.1725155E+001	2.7851519E+001	6.7717812E+001	-2.4285765E+001	5.029822169567342E+001	3.3014238E+000	-2.1634882E-003	2.8636042E+001	4.8440089E+000	1.000000000000000E+000	11	1.1520765E-001	1.7012903E-003	-2.784493988682387E-004	-4.7291862E-004	1.3460350E-002	6.0735559E-003	1.4767163E-002	2.4285765E+001	-1.888907175297738E-006
1.7778128E+002	6.3709862E+001	2.6456335E+001	6.8984665E+001	-2.2551294E+001	5.128823102268507E+001	3.3014202E+000	-2.5502925E-003	3.3837978E+001	4.9768972E+000	1.000000000000000E+000	11	1.2670481E-001	1.8367098E-003	-2.809094514653035E-004	-3.9277249E-004	1.3387564E-002	5.5593569E-003	1.4495975E-002	2.2551294E+001	-2.460052597064806E-006
1.5842838E+002	6.5946999E+001	2.5476322E+001	7.0696884E+001	-2.1122301E+001	5.205472748581087E+001	3.3014185E+000	-2.3207802E-003	3.9432148E+001	5.1206298E+000	1.000000000000000E+000	11	1.2666877E-001	1.7917164E-003	-2.810537319467791E-004	-3.9277249E-004	1.3194546E-002	5.0972528E-003	1.4144895E-002	2.1122301E+001	-1.442804814756008E-007
1.4131134E+002	6.8021172E+001	2.4436319E+001	7.2277336E+001	-1.9760611E+001	5.280788778825081E+001	3.3014178E+000	-2.2813161E-003	4.6090065E+001	5.2683501E+000	1.000000000000000E+000	11	1.2663221E-001	1.7520321E-003	-2.827367648464860E-004	-1.5233411E-004	1.3020865E-002	4.6776906E-003	1.3835596E-002	1.9760611E+001	-1.683032899706929E-006
1.2584569E+002	6.9961670E+001	2.3333881E+001	7.3750290E+001	-1.8444769E+001	5.356338803740800E+001	3.3014145E+000	-2.3511210E-003	5.4199440E+001	5.4255190E+000	1.000000000000000E+000	11	1.2660407E-001	1.7166585E-003	-2.818595540623905E-004	-7.2187977E-005	1.2862717E-002	4.2900220E-003	1.3559269E-002	1.8444769E+001	8.772107840955123E-007
1.1218996E+002	7.1730095E+001	2.2221594E+001	7.5093315E+001	-1.7212696E+001	5.430887281952892E+001	3.3014133E+000	-2.2997458E-003	6.3839718E+001	5.5903478E+000	1.000000000000000E+000	11	1.2658478E-001	1.6856998E-003	-2.804560152112196E-004	-1.5233411E-004	1.2720344E-002	3.9406931E-003	1.3316764E-002	1.7212696E+001	1.403538851170905E-006
1.0003201E+002	7.3344536E+001	2.1108915E+001	7.6321732E+001	-1.6056078E+001	5.506869824231399E+001	3.3014257E+000	-2.0895889E-003	7.5372902E+001	5.7656813E+000	1.000000000000000E+000	11	1.2656602E-001	1.6583222E-003	-2.804719172536085E-004	2.4839654E-004	1.2591321E-002	3.6238441E-003	1.3102428E-002	1.6056078E+001	-1.590204238888270E-008
8.9115974E+001	7.4821442E+001	2.0008419E+001	7.7450531E+001	-1.4971471E+001	5.583473691869585E+001	3.3014216E+000	-2.1614421E-003	8.9258949E+001	5.9570127E+000	1.000000000000000E+000	11	1.2654942E-001	1.6339388E-003	-2.820329080676117E-004	-7.1335700E-004	1.2473182E-002	3.3355232E-003	1.2911467E-002	1.4971471E+001	-1.560990814003169E-006
7.9415527E+001	7.6164894E+001	1.8931421E+001	7.8482414E+001	-1.3958476E+001	5.659922258162987E+001	3.3014224E+000	-2.0862389E-003	1.0585990E+002	6.1596098E+000	1.000000000000000E+000	11	1.2654139E-001	1.6123535E-003	-2.805549851435483E-004	-3.1262636E-004	1.2365456E-002	3.0735375E-003	1.2741708E-002	1.3958476E+001	1.477922924063399E-006
7.0838745E+001	7.7366234E+001	1.7926365E+001	7.9415924E+001	-1.3045667E+001	5.735036763062817E+001	3.3014205E+000	-2.2131887E-003	1.2533058E+002	6.3859620E+000	1.000000000000000E+000	11	1.2652901E-001	1.5932447E-003	-2.818859494560424E-004	-1.5233411E-004	1.2266941E-002	2.8423467E-003	1.2591933E-002	1.3045667E+001	-1.330964312494130E-006
6.3082302E+001	7.8480965E+001	1.6947906E+001	8.0290054E+001	-1.2185857E+001	5.813084404107940E+001	3.3014147E+000	-2.2411114E-003	1.4886635E+002	6.6329260E+000	1.000000000000000E+000	11	1.2652159E-001	1.5758065E-003	-2.827468738669995E-004	-4.7291862E-004	1.2174211E-002	2.6290121E-003	1.2454843E-002	1.2185857E+001	-8.609244109571666E-007
5.6241817E+001	7.9491867E+001	1.6047237E+001	8.1095444E+001	-1.1413065E+001	5.887532466309494E+001	3.3014185E+000	-2.3088676E-003	1.7634393E+002	6.9050713E+000	1.000000000000000E+000	11	1.2652047E-001	1.5601427E-003	-2.838215607378402E-004	-6.3321088E-004	1.2087313E-002	2.4400984E-003	1.2331149E-002	1.1413065E+001	-1.074686870840692E-006
5.0144413E+001	8.0407356E+001	1.5214991E+001	8.1834213E+001	-1.0715041E+001	5.963216531233047E+001	3.3014147E+000	-2.1815461E-003	2.0860556E+002	7.2110653E+000	1.000000000000000E+000	11	1.2651166E-001	1.5459508E-003	-2.849248825127272E-004	-4.7291862E-004	1.2006763E-002	2.2719661E-003	1.2219828E-002	1.0715041E+001	-1.103321774886920E-006
4.4671219E+001	8.1258919E+001	1.4445448E+001	8.2532921E+001	-1.0080200E+001	6.039621393530979E+001	3.3014143E+000	-2.1754038E-003	2.4663876E+002	7.5555992E+000	1.000000000000000E+000	11	1.2650900E-001	1.5328308E-003	-2.858254361877399E-004	7.9581514E-006	1.1929345E-002	2.1206872E-003	1.2116377E-002	1.0080200E+001	-9.005536750127606E-007
3.9808922E+001	8.2046867E+001	1.3751050E+001	8.3191223E+001	-9.5143414E+000	6.115873071823444E+001	3.3014147E+000	-2.2802008E-003	2.9073938E+002	7.9436584E+000	1.000000000000000E+000	11	1.2650394E-001	1.5206406E-003	-2.842215023478234E-004	-1.5233411E-004	1.1855148E-002	1.9869220E-003	1.2020499E-002	9.5143414E+000	1.603933839916505E-006
3.5465305E+001	8.2776703E+001	1.3120723E+001	8.3810120E+001	-9.0068741E+000	6.190813616712694E+001	3.3014157E+000	-1.9282007E-003	3.4202567E+002	8.3826485E+000	1.000000000000000E+000	11	1.2649913E-001	1.5093539E-003	-2.875915004764619E-004	-3.1262636E-004	1.1784609E-002	1.8679482E-003	1.1931733E-002	9.0068741E+000	-3.369998128638471E-006
3.1629551E+001	8.3463516E+001	1.2561531E+001	8.4403496E+001	-8.5589638E+000	6.263246185486787E+001	3.3014104E+000	-2.4423292E-003	4.0057565E+002	8.8725576E+000	1.000000000000000E+000	11	1.2650150E-001	1.4987709E-003	-2.892210368176101E-004	1.6825041E-004	1.1715904E-002	1.7632818E-003	1.1847851E-002	8.5589638E+000	-1.629536341148205E-006
2.8170074E+001	8.4062050E+001	1.2059773E+001	8.4922707E+001	-8.1641045E+000	6.343677874642890E+001	3.3014281E+000	-1.6551258E-003	4.6848209E+002	9.4476461E+000	1.000000000000000E+000	11	1.2649554E-001	1.4895373E-003	-2.864884173293378E-004	-2.3248023E-004	1.1656075E-002	1.6722125E-003	1.1775414E-002	8.1641045E+000	2.732619488272285E-006
2.5104435E+001	8.4576309E+001	1.1609797E+001	8.5369431E+001	-7.8161469E+000	6.419294158232515E+001	3.3014195E+000	-8.9956936E-004	5.4606592E+002	1.0099259E+001	1.000000000000000E+000	11	1.2649605E-001	1.4817488E-003	-2.854283828095843E-004	-4.7291862E-004	1.1604969E-002	1.5930149E-003	1.1713795E-002	7.8161469E+000	1.060034519753477E-006
2.2385387E+001	8.5151093E+001	1.1241766E+001	8.5889961E+001	-7.5207753E+000	6.487941054822295E+001	3.3014171E+000	-2.0477057E-003	6.3244238E+002	1.0834410E+001	1.000000000000000E+000	11	1.2649685E-001	1.4727780E-003	-2.891124101736124E-004	-6.3321088E-004	1.1542647E-002	1.5238763E-003	1.1642804E-002	7.5207753E+000	-3.684027364028036E-006
1.9955299E+001	8.5701782E+001	1.0930175E+001	8.6395973E+001	-7.2681117E+000	6.564020255769719E+001	3.3014112E+000	-2.4369315E-003	7.2968390E+002	1.1678902E+001	1.000000000000000E+000	11	1.2649159E-001	1.4640912E-003	-2.879503656141072E-004	-1.5233411E-004	1.1481612E-002	1.4643339E-003	1.1574614E-002	7.2681117E+000	1.162044559505201E-006
1.7796129E+001	8.6249596E+001	1.0673044E+001	8.6907463E+001	-7.0542631E+000	6.648454502449022E+001	3.3014224E+000	-2.1702868E-003	8.3792719E+002	1.2637721E+001	1.000000000000000E+000	11	1.2649383E-001	1.4555001E-003	-2.890128679776487E-004	-2.3248023E-004	1.1419390E-002	1.4131041E-003	1.1506491E-002	7.0542631E+000	-1.062502363541524E-006
1.5857576E+001	8.6774475E+001	1.0459769E+001	8.7402611E+001	-6.8732553E+000	6.720591284544207E+001	3.3014145E+000	-2.2654939E-003	9.5953583E+002	1.3742210E+001	1.000000000000000E+000	11	1.2649119E-001	1.4472244E-003	-2.892512075158302E-004	7.9581514E-006	1.1359081E-002	1.3692203E-003	1.1441306E-002	6.8732553E+000	-2.383395381814861E-007
1.4118974E+001	8.7297440E+001	1.0308464E+001	8.7903969E+001	-6.7345500E+000	6.800823637688882E+001	3.3014100E+000	-2.0558974E-003	1.0935107E+003	1.5038136E+001	1.000000000000000E+000	11	1.2649176E-001	1.4389766E-003	-2.940863962338076E-004	-3.1262636E-004	1.1297557E-002	1.3340650E-003	1.1376050E-002	6.7345500E+000	-4.835188717977460E-006
1.2600808E+001	8.7794342E+001	1.0200618E+001	8.8384949E+001	-6.6273460E+000	6.889884263253771E+001	3.3014262E+000	-2.4074346E-003	1.2382128E+003	1.6492693E+001	1.000000000000000E+000	11	1.2649076E-001	1.4311346E-003	-2.904602163450844E-004	-3.1262636E-004	1.1238540E-002	1.3057794E-003	1.1314143E-002	6.6273460E+000	3.626179888723230E-006
1.1224856E+001	8.8282501E+001	1.0155202E+001	8.8864662E+001	-6.5619354E+000	6.958290349168237E+001	3.3014190E+000	-2.6884167E-003	1.3962101E+003	1.8233486E+001	1.000000000000000E+000	11	1.2648855E-001	1.4233842E-003	-2.973273470383752E-004	-3.9277249E-004	1.1179348E-002	1.2859687E-003	1.1253067E-002	6.5619354E+000	-6.867130693290798E-006
1.0003201E+001	8.8771591E+001	1.0172993E+001	8.9352592E+001	-6.5374284E+000	7.034370542116812E+001	3.3014233E+000	-2.9028554E-003	1.5639844E+003	2.0272886E+001	1.000000000000000E+000	11	1.2648988E-001	1.4156263E-003	-2.863096316368222E-004	-5.5306475E-004	1.1118845E-002	1.2741906E-003	1.1191617E-002	6.5374284E+000	1.101771540155299E-005
8.9183798E+000	8.9244408E+001	1.0229187E+001	8.9828728E+001	-6.5387030E+000	7.118801943457220E+001	3.3014255E+000	-1.5560139E-003	1.7445887E+003	2.2622719E+001	1.000000000000000E+000	11	1.2648901E-001	1.4081132E-003	-2.982799083492913E-004	-9.5379539E-004	1.1059882E-002	1.2676829E-003	1.1132296E-002	6.5387030E+000	-1.197027671246906E-005
7.9395342E+000	8.9715050E+001	1.0352987E+001	9.0310432E+001	-6.5827332E+000	7.212666891919071E+001	3.3014381E+000	-2.2553566E-003	1.9362412E+003	2.5445732E+001	1.000000000000000E+000	11	1.2648986E-001	1.4006118E-003	-2.857796728110795E-004	-2.3248023E-004	1.0999918E-002	1.2693747E-003	1.1072918E-002	6.5827332E+000	1.250023553821180E-005
7.0765405E+000	9.0164917E+001	1.0519344E+001	9.0776474E+001	-6.6544905E+000	7.268503481234075E+001	3.3014262E+000	-1.3439014E-003	2.1380137E+003	2.8710529E+001	1.000000000000000E+000	11	1.2648702E-001	1.3933899E-003	-2.852397008716022E-004	-7.2187977E-005	1.0941855E-002	1.2765623E-003	1.1016070E-002	6.6544905E+000	5.399719394772818E-007
6.3105822E+000	9.0607231E+001	1.0747332E+001	9.1242401E+001	-6.7645040E+000	7.330519876178005E+001	3.3014214E+000	8.9820364E-004	2.3466592E+003	3.2558014E+001	1.000000000000000E+000	11	1.2648714E-001	1.3862759E-003	-2.859956714242968E-004	-3.1262636E-004	1.0883522E-002	1.2909435E-003	1.0959817E-002	6.7645040E+000	-7.559705526946517E-007
5.6205034E+000	9.1057434E+001	1.1087910E+001	9.1730026E+001	-6.9426312E+000	7.399067599439149E+001	3.3014293E+000	1.7040191E-003	2.5538494E+003	3.7313980E+001	1.000000000000000E+000	11	1.2648690E-001	1.3789040E-003	-2.935259380033110E-004	-7.2187977E-005	1.0821622E-002	1.3177306E-003	1.0901555E-002	6.9426312E+000	-7.530266579014184E-006
5.0144415E+000	9.1558434E+001	1.1506040E+001	9.2278580E+001	-7.1627436E+000	7.474816075034323E+001	3.3014293E+000	-5.2877690E-004	2.7584919E+003	4.2886600E+001	1.000000000000000E+000	11	1.2648639E-001	1.3707016E-003	-3.070744215617112E-004	-5.5306475E-004	1.0752182E-002	1.3512138E-003	1.0836751E-002	7.1627436E+000	-1.354848355840014E-005
4.4693937E+000	9.2035995E+001	1.1938412E+001	9.2807060E+001	-7.3908305E+000	7.558949353694334E+001	3.3014197E+000	-3.3938161E-003	2.9828057E+003	4.9357826E+001	1.000000000000000E+000	11	1.2649268E-001	1.3629639E-003	-3.050203135324732E-004	-3.1262636E-004	1.0685521E-002	1.3860679E-003	1.0775043E-002	7.3908305E+000	2.054108029237930E-006
3.9778514E+000	9.2514664E+001	1.2536813E+001	9.3360245E+001	-7.7172351E+000	7.652618680809974E+001	3.3014324E+000	-2.9999367E-003	3.1914233E+003	5.7548599E+001	1.000000000000000E+000	11	1.2648754E-001	1.3548330E-003	-2.832095145005539E-004	-5.5306475E-004	1.0614185E-002	1.4383454E-003	1.0711198E-002	7.7172351E+000	2.181079903191933E-005
3.5511365E+000	9.3031898E+001	1.3127345E+001	9.3953506E+001	-8.0317430E+000	7.756738101757946E+001	3.3014238E+000	5.9526225E-005	3.4140969E+003	6.6650543E+001	1.000000000000000E+000	11	1.2648737E-001	1.3462763E-003	-2.933272231848677E-004	-2.3248023E-004	1.0539157E-002	1.4871367E-003	1.0643562E-002	8.0317430E+000	-1.011770868431384E-005
3.1603966E+000	9.3580917E+001	1.3915892E+001	9.4609940E+001	-8.4581509E+000	7.872926837942214E+001	3.3014288E+000	-1.2475788E-003	3.6188245E+003	7.8291763E+001	1.000000000000000E+000	11	1.2648521E-001	1.3369125E-003	-3.165724827543842E-004	-7.2187977E-005	1.0454753E-002	1.5546674E-003	1.0569714E-002	8.4581509E+000	-2.324525956951646E-005
2.8183618E+000	9.4088531E+001	1.4726916E+001	9.5234100E+001	-8.8958664E+000	8.002463980099128E+001	3.3014359E+000	-3.0219608E-003	3.8345247E+003	9.1695961E+001	1.000000000000000E+000	11	1.2648782E-001	1.3281779E-003	-2.825620083271901E-004	-2.3248023E-004	1.0374131E-002	1.6237787E-003	1.0500440E-002	8.8958664E+000	3.401047442719410E-005
2.5136740E+000	9.4722488E+001	1.5645475E+001	9.6005890E+001	-9.3789625E+000	8.146871896291123E+001	3.3014364E+000	-3.6605820E-004	4.0468994E+003	1.0747419E+002	1.000000000000000E+000	11	1.2648863E-001	1.3175090E-003	-2.982901541361740E-004	-7.1335700E-004	1.0276786E-002	1.6974345E-003	1.0416027E-002	9.3789625E+000	-1.572814580898393E-005
2.2398219E+000	9.5369484E+001	1.6739355E+001	9.6827393E+001	-9.9552126E+000	8.308334285291494E+001	3.3014300E+000	-1.5053862E-003	4.2449043E+003	1.2686706E+002	1.000000000000000E+000	11	1.2648815E-001	1.3063261E-003	-3.182545213596895E-004	-2.3248023E-004	1.0172154E-002	1.7854277E-003	1.0327656E-002	9.9552126E+000	-1.996436722351551E-005
1.9970604E+000	9.5996170E+001	1.7927023E+001	9.7655739E+001	-1.0577986E+001	8.488673728525464E+001	3.3014357E+000	-1.8550602E-003	4.4455010E+003	1.4981026E+002	1.000000000000000E+000	11	1.2648645E-001	1.2952280E-003	-2.711479317188544E-004	-7.1335700E-004	1.0066034E-002	1.8798043E-003	1.0240054E-002	1.0577986E+001	4.710658964083512E-005
1.7796129E+000	9.6698044E+001	1.9215090E+001	9.8588699E+001	-1.1238972E+001	8.690492415442714E+001	3.3014266E+000	1.1701843E-004	4.6542764E+003	1.7680019E+002	1.000000000000000E+000	11	1.2648728E-001	1.2829795E-003	-3.291087216316114E-004	-4.7291862E-004	9.9486336E-003	1.9769156E-003	1.0143151E-002	1.1238972E+001	-5.796078991275702E-005
1.5846854E+000	9.7499809E+001	2.0651148E+001	9.9662842E+001	-1.1958907E+001	8.916403084839112E+001	3.3014245E+000	-2.0317154E-003	4.8633203E+003	2.0881166E+002	1.000000000000000E+000	11	1.2649149E-001	1.2691941E-003	-2.818737750379821E-004	-1.5233411E-004	9.8160608E-003	2.0791111E-003	1.0033830E-002	1.1958907E+001	4.723494659362933E-005
1.4122382E+000	9.8382332E+001	2.2273796E+001	1.0087222E+002	-1.2756729E+001	9.169324624849833E+001	3.3014269E+000	-1.5997054E-004	5.0596201E+003	2.4669662E+002	1.000000000000000E+000	11	1.2648585E-001	1.2539215E-003	-3.050417558297437E-004	-7.1335700E-004	9.6688308E-003	2.1890267E-003	9.9135321E-003	1.2756729E+001	-2.316798079176160E-005
1.2596743E+000	9.9304657E+001	2.4055624E+001	1.0217675E+002	-1.3617059E+001	9.452091286284849E+001	3.3014224E+000	-1.3115448E-003	5.2522480E+003	2.9112152E+002	1.000000000000000E+000	11	1.2648973E-001	1.2379502E-003	-3.172668845804550E-004	-3.9277249E-004	9.5118601E-003	2.3041591E-003	9.7869625E-003	1.3617059E+001	-1.222512875071130E-005
1.1224856E+000	1.0028780E+002	2.6032684E+001	1.0361150E+002	-1.4551661E+001	9.768898423996870E+001	3.3014314E+000	-9.3630579E-004	5.4465356E+003	3.4382892E+002	1.000000000000000E+000	11	1.2648818E-001	1.2207929E-003	-2.710460062715703E-004	-5.5306475E-004	9.3418341E-003	2.4249514E-003	9.6514383E-003	1.4551661E+001	4.622087830888469E-005
1.0000638E+000	1.0135367E+002	2.8184954E+001	1.0519961E+002	-1.5540462E+001	1.012381602751848E+002	3.3014238E+000	-2.7405247E-004	5.6464448E+003	4.0530460E+002	1.000000000000000E+000	11	1.2648615E-001	1.2023443E-003	-3.507740951597937E-004	-7.2187977E-005	9.1582229E-003	2.5467661E-003	9.5057385E-003	1.5540462E+001	-7.972808888822333E-005