EC-Lab ASCII FILE
Nb header lines : 60                          

Potentio Electrochemical Impedance Spectroscopy

Run on channel : 9 (SN 41381)
User : 
CE vs. WE compliance from -10 V to 10 V
Electrode connection : standard
Ewe ctrl range : min = -5.00 V, max = 5.00 V
Acquisition started on : 12/03/2020 16:53:14
Technique started on : 12/03/2020 16:53:15
Saved on :
	File : DE_206_9_30.mpr
	Directory : P:\Chemistry\Data\VMP3\Kyler\DOE\DE_206\
	Host : 10.0.4.64
Device : VMP3 (SN 1432)
Address : USB
EC-Lab for windows v11.33 (software)
Internet server v11.32 (firmware)
Command interpretor v11.33 (firmware)
Electrode material : 
Initial state : 
Electrolyte : 
Comments : 
Electrode surface area : 0.001 cm²
Characteristic mass : 0.001 g
Equivalent Weight : 0.000 g/eq.
Density : 0.000 g/cm3
Record Analogic IN 1
Cycle Definition : Charge/Discharge alternance
Mode                Single sine         
E (V)               0.0000              
vs.                 Eoc                 
tE (h:m:s)          0:00:0.0000         
record              0                   
dI                  1.000               
unit dI             mA                  
dt (s)              0.000               
fi                  1.000               
unit fi             MHz                 
ff                  1.000               
unit ff             Hz                  
Nd                  20                  
Points              per decade          
spacing             Logarithmic         
Va (mV)             128.0               
pw                  0.50                
Na                  3                   
corr                0                   
E range min (V)     -5.000              
E range max (V)     5.000               
I Range             Auto                
Bandwidth           5                   
nc cycles           0                   
goto Ns'            0                   
nr cycles           0                   
inc. cycle          1                   

freq/Hz	Re(Z)/Ohm	-Im(Z)/Ohm	|Z|/Ohm	Phase(Z)/deg	time/s	<Ewe>/V	<I>/mA	Cs/µF	Cp/µF	cycle number	I Range	|Ewe|/V	|I|/A	(Q-Qo)/mA.h	Analog IN 1/V	Re(Y)/Ohm-1	Im(Y)/Ohm-1	|Y|/Ohm-1	Phase(Y)/deg	dq/mA.h	
1.0000186E+006	1.3442499E+002	7.0283630E+001	1.5169003E+002	-2.7602661E+001	1.644475518056424E+000	3.3402064E+000	-1.2960591E-004	2.2644247E-003	4.8612972E-004	1.000000000000000E+000	11	4.7529189E-004	3.1333100E-006	4.074299155203739E-007	1.6283807E-003	5.8420589E-003	3.0545001E-003	6.5923911E-003	2.7602661E+001	4.074299155203739E-007
8.9124669E+005	1.4600444E+002	7.1989128E+001	1.6278738E+002	-2.6246119E+001	2.239492453023558E+000	3.3397145E+000	-1.2474320E-003	2.4805919E-003	4.8511827E-004	1.000000000000000E+000	11	1.8850791E-004	1.1580007E-006	1.451134971874934E-007	1.3075040E-003	5.5096573E-003	2.7165983E-003	6.1429823E-003	2.6246119E+001	-2.623164183328805E-007
7.9433269E+005	1.4910928E+002	6.7662979E+001	1.6374327E+002	-2.4407650E+001	2.835478747991147E+000	3.3394623E+000	-1.8160393E-003	2.9611920E-003	5.0564052E-004	1.000000000000000E+000	11	1.4873026E-003	9.0831372E-006	-1.519711462794172E-007	1.4679424E-003	5.5613187E-003	2.5236213E-003	6.1071212E-003	2.4407650E+001	-2.970846434669107E-007
7.0794981E+005	1.5543861E+002	6.6808517E+001	1.6918788E+002	-2.3258347E+001	3.430482829600805E+000	3.3393116E+000	-2.1682030E-003	3.3650058E-003	5.2469992E-004	1.000000000000000E+000	11	3.5905596E-003	2.1222322E-005	-5.927235318283945E-007	1.8690383E-003	5.4302574E-003	2.3339598E-003	5.9105889E-003	2.3258347E+001	-4.407523855489772E-007
6.3095681E+005	1.6215976E+002	6.6152390E+001	1.7513402E+002	-2.2192797E+001	4.026493017881876E+000	3.3392501E+000	-2.3413941E-003	3.8130714E-003	5.4403272E-004	1.000000000000000E+000	11	6.6082464E-003	3.7732512E-005	-8.475868992108089E-007	1.7086000E-003	5.2869120E-003	2.1567733E-003	5.7099131E-003	2.2192797E+001	-2.548633673824144E-007
5.6234225E+005	1.6860228E+002	6.4792427E+001	1.8062334E+002	-2.1021345E+001	4.622487846208969E+000	3.3391721E+000	-2.4754361E-003	4.3681259E-003	5.6207716E-004	1.000000000000000E+000	11	1.0663450E-002	5.9036945E-005	-1.189950458360221E-006	1.6283807E-003	5.1679192E-003	1.9859876E-003	5.5363830E-003	2.1021345E+001	-3.423635591494125E-007
5.0120619E+005	1.7464552E+002	6.3581039E+001	1.8585910E+002	-2.0004423E+001	5.218493714492070E+000	3.3391407E+000	-2.6143254E-003	4.9943170E-003	5.8447197E-004	1.000000000000000E+000	11	1.5766598E-002	8.4830921E-005	-1.606557268609726E-006	1.6283807E-003	5.0557987E-003	1.8406024E-003	5.3804200E-003	2.0004423E+001	-4.166068102495047E-007
4.4668572E+005	1.8058530E+002	6.2189503E+001	1.9099367E+002	-1.9002552E+001	5.813478569412837E+000	3.3391418E+000	-2.6171200E-003	5.7292925E-003	6.0743134E-004	1.000000000000000E+000	11	2.1914037E-002	1.1473698E-004	-2.104042599230701E-006	1.7086000E-003	4.9504475E-003	1.7048224E-003	5.2357758E-003	1.9002552E+001	-4.974853306209754E-007
3.9810347E+005	1.8600925E+002	6.0767315E+001	1.9568369E+002	-1.8091686E+001	6.409490224410547E+000	3.3391187E+000	-2.6769629E-003	6.5789130E-003	6.3443190E-004	1.000000000000000E+000	11	2.9114902E-002	1.4878553E-004	-2.437007375027558E-006	1.6283807E-003	4.8576393E-003	1.5869412E-003	5.1102880E-003	1.8091686E+001	-3.329647757968562E-007
3.5480997E+005	1.9115369E+002	5.8933723E+001	2.0003229E+002	-1.7134815E+001	7.004480465984670E+000	3.3390849E+000	-2.8760680E-003	7.6113278E-003	6.6067517E-004	1.000000000000000E+000	11	3.7397385E-002	1.8695673E-004	-3.142661967856434E-006	1.4679424E-003	4.7772997E-003	1.4728674E-003	4.9991929E-003	1.7134815E+001	-7.056545928288767E-007
3.1622997E+005	1.9600691E+002	5.7113853E+001	2.0415852E+002	-1.6245432E+001	7.600488334283000E+000	3.3390596E+000	-2.8701017E-003	8.8120233E-003	6.8964175E-004	1.000000000000000E+000	11	4.6811253E-002	2.2928875E-004	-3.076535461312031E-006	1.8690383E-003	4.7025820E-003	1.3702709E-003	4.8981546E-003	1.6245432E+001	6.612650654440364E-008
2.8183453E+005	2.0047829E+002	5.5158863E+001	2.0792798E+002	-1.5383513E+001	8.196487455948954E+000	3.3389955E+000	-3.0690201E-003	1.0237893E-002	7.2046911E-004	1.000000000000000E+000	11	5.7305668E-002	2.7560344E-004	-3.186298093776309E-006	1.3877231E-003	4.6370472E-003	1.2758201E-003	4.8093577E-003	1.5383513E+001	-1.097626324642784E-007
2.5118764E+005	2.0469595E+002	5.3207005E+001	2.1149803E+002	-1.4570560E+001	8.792475804249989E+000	3.3389599E+000	-3.1236403E-003	1.1908391E-002	7.5366441E-004	1.000000000000000E+000	11	6.8992727E-002	3.2620979E-004	-3.278208512033517E-006	1.3877231E-003	4.5761112E-003	1.1894772E-003	4.7281762E-003	1.4570560E+001	-9.191041825720771E-008
2.2387173E+005	2.0865704E+002	5.1181087E+001	2.1484242E+002	-1.3781871E+001	9.388480899244314E+000	3.3389897E+000	-2.8934001E-003	1.3890292E-002	7.8829774E-004	1.000000000000000E+000	11	8.1818953E-002	3.8083238E-004	-3.411674871955054E-006	1.6283807E-003	4.5205676E-003	1.1088414E-003	4.6545742E-003	1.3781871E+001	-1.334663599215372E-007
1.9954350E+005	2.1233266E+002	4.9283016E+001	2.1797701E+002	-1.3067143E+001	9.984480927552795E+000	3.3389194E+000	-3.1950404E-003	1.6183978E-002	8.2729134E-004	1.000000000000000E+000	11	9.5727295E-002	4.3916237E-004	-4.666780105530051E-006	1.2272848E-003	4.4688466E-003	1.0372321E-003	4.5876401E-003	1.3067143E+001	-1.255105233574997E-006
1.7783180E+005	2.1580899E+002	4.7382774E+001	2.2094942E+002	-1.2383308E+001	1.057949748911778E+001	3.3389130E+000	-3.2202082E-003	1.8888185E-002	8.6865132E-004	1.000000000000000E+000	11	1.1079090E-001	5.0143106E-004	-4.700161027874047E-006	1.7086000E-003	4.4206260E-003	9.7058772E-004	4.5259227E-003	1.2383308E+001	-3.338092234399576E-008
1.5848613E+005	2.1910423E+002	4.5526752E+001	2.2378416E+002	-1.1738220E+001	1.103949023099267E+001	3.3389616E+000	-3.0173727E-003	2.2057801E-002	9.1292866E-004	1.000000000000000E+000	11	1.2692621E-001	5.6718139E-004	-4.894963623942911E-006	9.0640807E-004	4.3751411E-003	9.0909231E-004	4.4685914E-003	1.1738220E+001	-1.948025960688637E-007
1.4125594E+005	2.2222310E+002	4.3772953E+001	2.2649321E+002	-1.1143321E+001	1.163547513927915E+001	3.3389065E+000	-3.2354945E-003	2.5739942E-002	9.6141052E-004	1.000000000000000E+000	11	1.2899691E-001	5.6953984E-004	-5.302800106065762E-006	1.3075040E-003	4.3319040E-003	8.5328764E-004	4.4151433E-003	1.1143321E+001	-4.078364821228508E-007
1.2590930E+005	2.2516255E+002	4.2009521E+001	2.2904797E+002	-1.0568404E+001	1.223248554099700E+001	3.3389223E+000	-3.2189032E-003	3.0089473E-002	1.0121786E-003	1.000000000000000E+000	11	1.2978850E-001	5.6664331E-004	-5.348315761246744E-006	1.1470657E-003	4.2918376E-003	8.0074614E-004	4.3658977E-003	1.0568404E+001	-4.551565518098253E-008
1.1220494E+005	2.2793701E+002	4.0352238E+001	2.3148128E+002	-1.0039195E+001	1.282749279591371E+001	3.3390157E+000	-2.8356058E-003	3.5151228E-002	1.0681790E-003	1.000000000000000E+000	11	1.2974381E-001	5.6049379E-004	-6.596841847051918E-006	1.5481616E-003	4.2538592E-003	7.5307098E-004	4.3200040E-003	1.0039195E+001	-1.248526085805174E-006
1.0000371E+005	2.3056139E+002	3.8722057E+001	2.3379041E+002	-9.5336733E+000	1.342247935748310E+001	3.3389537E+000	-3.1489925E-003	4.1100353E-002	1.1274805E-003	1.000000000000000E+000	11	1.2973525E-001	5.5492116E-004	-7.271828468355428E-006	1.4679424E-003	4.2182589E-003	7.0844323E-004	4.2773355E-003	9.5336733E+000	-6.749866213035096E-007
8.9129305E+004	2.3305956E+002	3.7163734E+001	2.3600403E+002	-9.0601206E+000	1.401748597240658E+001	3.3389401E+000	-3.2107006E-003	4.8048545E-002	1.1914618E-003	1.000000000000000E+000	11	1.2960739E-001	5.4917450E-004	-8.983140888536582E-006	1.3075040E-003	4.1843508E-003	6.6723762E-004	4.2372160E-003	9.0601206E+000	-1.711312420181155E-006
7.9433273E+004	2.3542645E+002	3.5695282E+001	2.3811713E+002	-8.6215029E+000	1.461447384077474E+001	3.3389683E+000	-3.2024975E-003	5.6131527E-002	1.2613838E-003	1.000000000000000E+000	11	1.2952539E-001	5.4395664E-004	-9.836706289821046E-006	1.3877231E-003	4.1521592E-003	6.2954903E-004	4.1996138E-003	8.6215029E+000	-8.535654012844632E-007
7.0794977E+004	2.3759366E+002	3.4316483E+001	2.4005910E+002	-8.2185946E+000	1.521049146910082E+001	3.3389988E+000	-3.0501850E-003	6.5511100E-002	1.3387026E-003	1.000000000000000E+000	11	1.2935054E-001	5.3882791E-004	-9.253957012855809E-006	1.7888192E-003	4.1228593E-003	5.9547898E-004	4.1656410E-003	8.2185946E+000	5.827492769652364E-007
6.3093828E+004	2.3969209E+002	3.2984287E+001	2.4195096E+002	-7.8353224E+000	1.567049301092629E+001	3.3389683E+000	-3.1322138E-003	7.6476172E-002	1.4212996E-003	1.000000000000000E+000	11	1.4061007E-001	5.8115111E-004	-9.533219090869858E-006	1.2272848E-003	4.0944824E-003	5.6344614E-004	4.1330690E-003	7.8353224E+000	-2.792620780140488E-007
5.6237012E+004	2.4166939E+002	3.1794569E+001	2.4375189E+002	-7.4949179E+000	1.626648943926557E+001	3.3389962E+000	-3.1241977E-003	8.9011259E-002	1.5144497E-003	1.000000000000000E+000	11	1.3041386E-001	5.3502707E-004	-1.035590582528372E-005	1.6283807E-003	4.0674820E-003	5.3512712E-004	4.1025323E-003	7.4949179E+000	-8.226867344138655E-007
5.0122477E+004	2.4354579E+002	3.0660986E+001	2.4546822E+002	-7.1754527E+000	1.672549751438783E+001	3.3389807E+000	-3.1238247E-003	1.0356225E-001	1.6157835E-003	1.000000000000000E+000	11	1.3984244E-001	5.6969671E-004	-1.072321835033007E-005	1.7888192E-003	4.0419418E-003	5.0885679E-004	4.0738471E-003	7.1754527E+000	-3.673125250463474E-007
4.4666715E+004	2.4530545E+002	2.9628674E+001	2.4708829E+002	-6.8869824E+000	1.732048154264339E+001	3.3389864E+000	-3.1588736E-003	1.2026075E-001	1.7291951E-003	1.000000000000000E+000	11	1.3007666E-001	5.2643800E-004	-1.151532723372737E-005	1.4679424E-003	4.0179347E-003	4.8529729E-004	4.0471363E-003	6.8869824E+000	-7.921088833973039E-007
3.9814063E+004	2.4697363E+002	2.8699593E+001	2.4863556E+002	-6.6283321E+000	1.777948031111737E+001	3.3389552E+000	-3.2267321E-003	1.3928615E-001	1.8558074E-003	1.000000000000000E+000	11	1.3745415E-001	5.5283384E-004	-1.241047019058735E-005	1.3075040E-003	3.9950674E-003	4.6424716E-004	4.0219510E-003	6.6283321E+000	-8.951429568599753E-007
3.5480996E+004	2.4856883E+002	2.7917418E+001	2.5013165E+002	-6.4081850E+000	1.837449809940881E+001	3.3390160E+000	-3.0805739E-003	1.6067529E-001	2.0015307E-003	1.000000000000000E+000	11	1.2959318E-001	5.1809987E-004	-1.395520818805542E-005	1.7888192E-003	3.9729155E-003	4.4620858E-004	3.9978945E-003	6.4081850E+000	-1.544737997468069E-006
3.1621143E+004	2.5010942E+002	2.7206112E+001	2.5158476E+002	-6.2080450E+000	1.883448980122921E+001	3.3389940E+000	-3.2043620E-003	1.8500185E-001	2.1634176E-003	1.000000000000000E+000	11	1.3507962E-001	5.3691497E-004	-1.436474138722082E-005	1.0668464E-003	3.9514946E-003	4.2983110E-004	3.9748037E-003	6.2080450E+000	-4.095331991654051E-007
2.8188096E+004	2.5157756E+002	2.6605635E+001	2.5298048E+002	-6.0368876E+000	1.929348307635519E+001	3.3389914E+000	-3.1750922E-003	2.1221729E-001	2.3472209E-003	1.000000000000000E+000	11	1.3991599E-001	5.5307028E-004	-1.482647499840015E-005	1.1470657E-003	3.9309529E-003	4.1571871E-004	3.9528739E-003	6.0368876E+000	-4.617336111793213E-007
2.5116910E+004	2.5301550E+002	2.6159883E+001	2.5436427E+002	-5.9029741E+000	1.988949579800828E+001	3.3390045E+000	-3.1141313E-003	2.4222451E-001	2.5619904E-003	1.000000000000000E+000	11	1.2961143E-001	5.0955045E-004	-1.605406280728575E-005	1.4679424E-003	3.9105234E-003	4.0431845E-004	3.9313696E-003	5.9029741E+000	-1.227587808885600E-006
2.2389027E+004	2.5442719E+002	2.5792181E+001	2.5573117E+002	-5.7885003E+000	2.034849261978525E+001	3.3390002E+000	-3.1956006E-003	2.7561119E-001	2.8035329E-003	1.000000000000000E+000	11	1.3286594E-001	5.1955314E-004	-1.695723633969384E-005	1.4679424E-003	3.8904173E-003	3.9438528E-004	3.9103562E-003	5.7885003E+000	-9.031735324080931E-007
1.9948783E+004	2.5580811E+002	2.5533129E+001	2.5707922E+002	-5.7000189E+000	2.080747728163260E+001	3.3389919E+000	-3.2079048E-003	3.1246379E-001	3.0822922E-003	1.000000000000000E+000	11	1.3560748E-001	5.2749296E-004	-1.763707642670023E-005	1.8690383E-003	3.8706183E-003	3.8634034E-004	3.8898515E-003	5.7000189E+000	-6.798400870063935E-007
1.7786895E+004	2.5713501E+002	2.5413708E+001	2.5838782E+002	-5.6444459E+000	2.126747541010263E+001	3.3390033E+000	-3.2198359E-003	3.5208863E-001	3.4059947E-003	1.000000000000000E+000	11	1.3786554E-001	5.3356052E-004	-1.772381780476361E-005	1.5481616E-003	3.8513867E-003	3.8064833E-004	3.8701515E-003	5.6444459E+000	-8.674137806338042E-008
1.5847686E+004	2.5848141E+002	2.5397552E+001	2.5972617E+002	-5.6116858E+000	2.172747295195586E+001	3.3390088E+000	-3.1187914E-003	3.9542344E-001	3.7810702E-003	1.000000000000000E+000	11	1.3974380E-001	5.3804286E-004	-1.765946366447355E-005	1.3075040E-003	3.8317565E-003	3.7649606E-004	3.8502088E-003	5.6116858E+000	6.435414029005865E-008
1.4121879E+004	2.5983527E+002	2.5511297E+001	2.6108466E+002	-5.6074753E+000	2.232347247362486E+001	3.3390143E+000	-3.1394870E-003	4.4176888E-001	4.2179120E-003	1.000000000000000E+000	11	1.2937793E-001	4.9554015E-004	-1.793057069601976E-005	1.4679424E-003	3.8118467E-003	3.7425695E-004	3.8301754E-003	5.6074753E+000	-2.711070315462080E-007
1.2590932E+004	2.6121817E+002	2.5747250E+001	2.6248401E+002	-5.6292372E+000	2.278349505548249E+001	3.3390162E+000	-3.2211426E-003	4.9094337E-001	4.7237556E-003	1.000000000000000E+000	11	1.3051243E-001	4.9722049E-004	-1.877471353621190E-005	1.6283807E-003	3.7913832E-003	3.7370177E-004	3.8097559E-003	5.6292372E+000	-8.441428401921355E-007
1.1217711E+004	2.6261472E+002	2.6110657E+001	2.6390955E+002	-5.6780133E+000	2.324348745067255E+001	3.3390038E+000	-3.2917985E-003	5.4337305E-001	5.3189206E-003	1.000000000000000E+000	11	1.3142869E-001	4.9800659E-004	-1.950558756646933E-005	1.6283807E-003	3.7705859E-003	3.7489322E-004	3.7891772E-003	5.6780133E+000	-7.308740302574320E-007
1.0002229E+004	2.6405356E+002	2.6553516E+001	2.6538531E+002	-5.7424216E+000	2.370348056583316E+001	3.3390052E+000	-3.2243112E-003	5.9924066E-001	5.9991754E-003	1.000000000000000E+000	11	1.3214630E-001	4.9794128E-004	-1.997730642376700E-005	1.7888192E-003	3.7491967E-003	3.7702333E-004	3.7681060E-003	5.7424216E+000	-4.717188572976755E-007
8.9149297E+003	2.6557153E+002	2.7146606E+001	2.6695538E+002	-5.8364778E+000	2.418590301543009E+001	3.3390472E+000	-3.1678241E-003	6.5763766E-001	6.8004928E-003	1.000000000000000E+000	11	1.3272822E-001	4.9719249E-004	-2.012663494697901E-005	1.4679424E-003	3.7265259E-003	3.8092386E-004	3.7459442E-003	5.8364778E+000	-1.493285232120096E-007
7.9439976E+003	2.6708273E+002	2.7839796E+001	2.6852979E+002	-5.9508266E+000	2.471200034709182E+001	3.3390424E+000	-3.1385547E-003	7.1963948E-001	7.7350326E-003	1.000000000000000E+000	11	1.3317749E-001	4.9595052E-004	-2.097100757619612E-005	2.1096959E-003	3.7039141E-003	3.8608341E-004	3.7239818E-003	5.9508266E+000	-8.443726292171052E-007
7.0822334E+003	2.6865967E+002	2.8647980E+001	2.7018277E+002	-6.0866194E+000	2.528886506782146E+001	3.3390503E+000	-3.1961612E-003	7.8443307E-001	8.8191880E-003	1.000000000000000E+000	11	1.3353151E-001	4.9422658E-004	-2.128875332583549E-005	1.6283807E-003	3.6803337E-003	3.9244493E-004	3.7011984E-003	6.0866194E+000	-3.177457496393695E-007
6.3077344E+003	2.7038361E+002	2.9574436E+001	2.7199622E+002	-6.2421718E+000	2.592356344460859E+001	3.3390424E+000	-3.3240505E-003	8.5315961E-001	1.0086430E-002	1.000000000000000E+000	11	1.3381815E-001	4.9198535E-004	-2.176606912283427E-005	1.4679424E-003	3.6547245E-003	3.9975211E-004	3.6765218E-003	6.2421718E+000	-4.773157969987829E-007
5.6210552E+003	2.7221387E+002	3.0626730E+001	2.7393137E+002	-6.4193416E+000	2.662428675786941E+001	3.3390720E+000	-3.2105139E-003	9.2448878E-001	1.1556315E-002	1.000000000000000E+000	11	1.3403822E-001	4.8931316E-004	-2.285448535108379E-005	1.9492576E-003	3.6276614E-003	4.0814749E-004	3.6505496E-003	6.4193416E+000	-1.088416228249523E-006
5.0116035E+003	2.7413785E+002	3.1763393E+001	2.7597186E+002	-6.6091909E+000	2.738468711405585E+001	3.3390689E+000	-3.2047355E-003	9.9980789E-001	1.3244657E-002	1.000000000000000E+000	11	1.3420123E-001	4.8628589E-004	-2.367417950177979E-005	1.7086000E-003	3.5994768E-003	4.1705879E-004	3.6235577E-003	6.6091909E+000	-8.196941506959961E-007
4.4664292E+003	2.7617923E+002	3.2976418E+001	2.7814099E+002	-6.8090081E+000	2.814470976348821E+001	3.3390727E+000	-3.1911260E-003	1.0805782E+000	1.5189139E-002	1.000000000000000E+000	11	1.3433267E-001	4.8296610E-004	-2.466731387420118E-005	1.8690383E-003	3.5699408E-003	4.2625892E-004	3.5952989E-003	6.8090081E+000	-9.931343724213849E-007
3.9812742E+003	2.7838565E+002	3.4292412E+001	2.8048981E+002	-7.0224957E+000	2.890470966625435E+001	3.3390765E+000	-3.2453763E-003	1.1657355E+000	1.7424563E-002	1.000000000000000E+000	11	1.3442774E-001	4.7926072E-004	-2.499223916239377E-005	1.9492576E-003	3.5384467E-003	4.3587692E-004	3.5651920E-003	7.0224957E+000	-3.249252881925919E-007
3.5465955E+003	2.8077533E+002	3.5696526E+001	2.8303537E+002	-7.2454605E+000	2.966493127567810E+001	3.3390739E+000	-3.2228190E-003	1.2571368E+000	1.9996455E-002	1.000000000000000E+000	11	1.3450278E-001	4.7521546E-004	-2.566946493938707E-005	1.4679424E-003	3.5049149E-003	4.4559932E-004	3.5331273E-003	7.2454605E+000	-6.772257769933066E-007
3.1610112E+003	2.8331531E+002	3.7111057E+001	2.8573553E+002	-7.4626021E+000	3.042469315178460E+001	3.3390541E+000	-3.3098813E-003	1.3567218E+000	2.2885948E-002	1.000000000000000E+000	11	1.3455771E-001	4.7091697E-004	-2.609629569988788E-005	1.3075040E-003	3.4700965E-003	4.5454281E-004	3.4997398E-003	7.4626021E+000	-4.268307605008096E-007
2.8172952E+003	2.8603436E+002	3.8609196E+001	2.8862836E+002	-7.6873770E+000	3.118395457448787E+001	3.3390632E+000	-3.2826629E-003	1.4631774E+000	2.6181862E-002	1.000000000000000E+000	11	1.3459450E-001	4.6632459E-004	-2.671666387076322E-005	1.9492576E-003	3.4335249E-003	4.6346054E-004	3.4646629E-003	7.6873770E+000	-6.203681708753319E-007
2.5108032E+003	2.8893402E+002	4.0122337E+001	2.9170648E+002	-7.9057255E+000	3.194371303726803E+001	3.3390632E+000	-3.2876956E-003	1.5798695E+000	2.9888321E-002	1.000000000000000E+000	11	1.3461688E-001	4.6148061E-004	-2.706675466181413E-005	1.3877231E-003	3.3955218E-003	4.7151343E-004	3.4281034E-003	7.9057255E+000	-3.500907910509113E-007
2.2378516E+003	2.9209824E+002	4.1589733E+001	2.9504422E+002	-8.1034603E+000	3.270392630001879E+001	3.3390656E+000	-3.2382931E-003	1.7100260E+000	3.3978231E-002	1.000000000000000E+000	11	1.3464290E-001	4.5634818E-004	-2.782165037620224E-005	1.7888192E-003	3.3554805E-003	4.7776237E-004	3.3893224E-003	8.1034603E+000	-7.548957143881144E-007
1.9956389E+003	2.9543726E+002	4.3062027E+001	2.9855905E+002	-8.2928591E+000	3.346368913612969E+001	3.3390729E+000	-3.2945934E-003	1.8520117E+000	3.8527619E-002	1.000000000000000E+000	11	1.3464561E-001	4.5098484E-004	-2.829381066156526E-005	1.4679424E-003	3.3143987E-003	4.8309664E-004	3.3494211E-003	8.2928591E+000	-4.721602853630139E-007
1.7782927E+003	2.9900842E+002	4.4430489E+001	3.0229141E+002	-8.4518957E+000	3.422396367890178E+001	3.3390758E+000	-3.2891883E-003	2.0143540E+000	4.3515738E-002	1.000000000000000E+000	11	1.3465159E-001	4.4543637E-004	-2.934703535032814E-005	1.9492576E-003	3.2721392E-003	4.8621628E-004	3.3080662E-003	8.4518957E+000	-1.053224688762887E-006
1.5855076E+003	3.0278696E+002	4.5724113E+001	3.0621991E+002	-8.5873995E+000	3.498369595499389E+001	3.3390598E+000	-3.4008587E-003	2.1953638E+000	4.8947468E-002	1.000000000000000E+000	11	1.3464838E-001	4.3971138E-004	-2.999431703993307E-005	1.4679424E-003	3.2290169E-003	4.8761655E-004	3.2656270E-003	8.5873995E+000	-6.472816896049260E-007
1.4118373E+003	3.0684137E+002	4.6908833E+001	3.1040628E+002	-8.6918821E+000	3.574520780445891E+001	3.3390691E+000	-3.3783007E-003	2.4031501E+000	5.4881897E-002	1.000000000000000E+000	11	1.3465026E-001	4.3378715E-004	-3.106217533328325E-005	1.7086000E-003	3.1845854E-003	4.8684826E-004	3.2215843E-003	8.6918821E+000	-1.067858293350178E-006
1.2587914E+003	3.1097824E+002	4.7842510E+001	3.1463690E+002	-8.7461081E+000	3.650492989388295E+001	3.3390732E+000	-3.2832224E-003	2.6427276E+000	6.1102785E-002	1.000000000000000E+000	11	1.3464187E-001	4.2792779E-004	-3.183031636433185E-005	1.5481616E-003	3.1413094E-003	4.8327533E-004	3.1782668E-003	8.7461081E+000	-7.681410310485983E-007
1.1217948E+003	3.1533020E+002	4.8665913E+001	3.1906348E+002	-8.7734194E+000	3.726341555654653E+001	3.3390675E+000	-3.3421325E-003	2.9152904E+000	6.7823060E-002	1.000000000000000E+000	11	1.3463739E-001	4.2197682E-004	-3.256016936669928E-005	1.8690383E-003	3.0975004E-003	4.7804709E-004	3.1341726E-003	8.7734194E+000	-7.298530023674361E-007
1.0003201E+003	3.1983420E+002	4.9245731E+001	3.2360324E+002	-8.7532444E+000	3.827367669792875E+001	3.3390586E+000	-1.3441632E-004	3.2308185E+000	7.4821085E-002	1.000000000000000E+000	12	1.3530788E-001	4.1812894E-004	-3.344267332425726E-005	1.4679424E-003	3.0542121E-003	4.7026525E-004	3.0902040E-003	8.7532444E+000	-8.825039575579790E-007
8.9142657E+002	3.2439984E+002	4.9532520E+001	3.2815961E+002	-8.6814241E+000	3.903145246722852E+001	3.3390510E+000	-1.5214237E-004	3.6044924E+000	8.2121097E-002	1.000000000000000E+000	12	1.3524646E-001	4.1213620E-004	-3.346122199283854E-005	2.0294767E-003	3.0123845E-003	4.5996014E-004	3.0472977E-003	8.6814241E+000	-1.854866858128383E-008
7.9423773E+002	3.2900778E+002	4.9540966E+001	3.3271674E+002	-8.5630884E+000	3.979094666329911E+001	3.3390465E+000	-2.0217005E-004	4.0448756E+000	8.9677773E-002	1.000000000000000E+000	12	1.3517539E-001	4.0627772E-004	-3.363553025109933E-005	1.6283807E-003	2.9720552E-003	4.4752279E-004	3.0055596E-003	8.5630884E+000	-1.743082582607839E-007
7.0750946E+002	3.3361832E+002	4.9270046E+001	3.3723688E+002	-8.4009380E+000	4.055346605947125E+001	3.3390560E+000	-1.5115443E-004	4.5656743E+000	9.7454235E-002	1.000000000000000E+000	12	1.3510308E-001	4.0061775E-004	-3.349908978037032E-005	1.5481616E-003	2.9334573E-003	4.3322434E-004	2.9652747E-003	8.4009380E+000	1.364404707290096E-007
6.3100964E+002	3.3810596E+002	4.8738903E+001	3.4160083E+002	-8.2028370E+000	4.131143086883822E+001	3.3390565E+000	-1.8684898E-004	5.1749768E+000	1.0534697E-001	1.000000000000000E+000	12	1.3503683E-001	3.9530592E-004	-3.340340987671192E-005	1.4679424E-003	2.8974437E-003	4.1767446E-004	2.9273934E-003	8.2028370E+000	9.567990365839642E-008
5.6233929E+002	3.4257251E+002	4.7888309E+001	3.4590347E+002	-7.9578252E+000	4.206791311810957E+001	3.3390634E+000	-1.5497580E-004	5.9100642E+000	1.1327690E-001	1.000000000000000E+000	12	1.3497840E-001	3.9021985E-004	-3.308377432855196E-005	1.7888192E-003	2.8631405E-003	4.0023922E-004	2.8909799E-003	7.9578252E+000	3.196355481599656E-007
5.0144415E+002	3.4683603E+002	4.6822430E+001	3.4998224E+002	-7.6883779E+000	4.282517360741622E+001	3.3390608E+000	-1.3109880E-004	6.7786565E+000	1.2132757E-001	1.000000000000000E+000	12	1.3491987E-001	3.8550489E-004	-3.332474510311214E-005	2.0294767E-003	2.8316018E-003	3.8226275E-004	2.8572879E-003	7.6883779E+000	-2.409707745601827E-007
4.4685895E+002	3.5092340E+002	4.5553471E+001	3.5386771E+002	-7.3962231E+000	4.358190001669573E+001	3.3390579E+000	-1.5016698E-004	7.8185863E+000	1.2956548E-001	1.000000000000000E+000	12	1.3487089E-001	3.8113364E-004	-3.301738723302697E-005	1.8690383E-003	2.8024022E-003	3.6378065E-004	2.8259149E-003	7.3962231E+000	3.073578700851714E-007
3.9808920E+002	3.5482318E+002	4.4087334E+001	3.5755164E+002	-7.0827899E+000	4.434470445294573E+001	3.3390560E+000	-1.7067042E-004	9.0683002E+000	1.3787198E-001	1.000000000000000E+000	12	1.3482580E-001	3.7708064E-004	-3.312519762945400E-005	1.6283807E-003	2.7754565E-003	3.4485481E-004	2.7967989E-003	7.0827899E+000	-1.078103964270317E-007
3.5465955E+002	3.5842075E+002	4.2488140E+001	3.6093030E+002	-6.7604437E+000	4.510495792902657E+001	3.3390598E+000	-2.3825667E-004	1.0561869E+001	1.4636241E-001	1.000000000000000E+000	12	1.3478023E-001	3.7342453E-004	-3.292652256754324E-005	1.2272848E-003	2.7513539E-003	3.2615275E-004	2.7706181E-003	6.7604437E+000	1.986750619107565E-007
3.1631586E+002	3.6174710E+002	4.0775852E+001	3.6403796E+002	-6.4311900E+000	4.586193660498247E+001	3.3390546E+000	-1.8252508E-004	1.2339459E+001	1.5481351E-001	1.000000000000000E+000	12	1.3474408E-001	3.7013742E-004	-3.329528849742685E-005	1.7086000E-003	2.7296797E-003	3.0768738E-004	2.7469662E-003	6.4311900E+000	-3.687659298836114E-007
2.8189429E+002	3.6485135E+002	3.9048626E+001	3.6693500E+002	-6.1088915E+000	4.661743306749850E+001	3.3390543E+000	-1.8459379E-004	1.4458661E+001	1.6374247E-001	1.000000000000000E+000	12	1.3471599E-001	3.6713856E-004	-3.312621831375550E-005	1.1470657E-003	2.7098027E-003	2.9001970E-004	2.7252783E-003	6.1088915E+000	1.690701836713589E-007
2.5104436E+002	3.6769083E+002	3.7301022E+001	3.6957800E+002	-5.7926512E+000	4.737392625014763E+001	3.3390536E+000	-1.9721304E-004	1.6996086E+001	1.7313232E-001	1.000000000000000E+000	12	1.3469224E-001	3.6444873E-004	-3.345103283518822E-005	1.4679424E-003	2.6919721E-003	2.7309172E-004	2.7057887E-003	5.7926512E+000	-3.248145214327223E-007
2.2392513E+002	3.7024326E+002	3.5557308E+001	3.7194675E+002	-5.4857306E+000	4.813672135306115E+001	3.3390591E+000	-1.8379242E-004	1.9988878E+001	1.8267733E-001	1.000000000000000E+000	12	1.3466373E-001	3.6205110E-004	-3.377314840936581E-005	1.7086000E-003	2.6762434E-003	2.5702026E-004	2.6885569E-003	5.4857306E+000	-3.221155741775896E-007
1.9955299E+002	3.7258594E+002	3.3919312E+001	3.7412671E+002	-5.2017293E+000	4.889621861578780E+001	3.3390574E+000	-2.0725965E-004	2.3513369E+001	1.9327313E-001	1.000000000000000E+000	12	1.3465041E-001	3.5990591E-004	-3.372454420116911E-005	1.3877231E-003	2.6618834E-003	2.4233136E-004	2.6728911E-003	5.2017293E+000	4.860420819669615E-008
1.7778128E+002	3.7472583E+002	3.2333626E+001	3.7611823E+002	-4.9316134E+000	4.966427302555530E+001	3.3390539E+000	-1.7087586E-004	2.7687243E+001	2.0461608E-001	1.000000000000000E+000	12	1.3463792E-001	3.5796702E-004	-3.353567065545778E-005	1.5481616E-003	2.6488958E-003	2.2856284E-004	2.6587385E-003	4.9316134E+000	1.888735457113307E-007
1.5842838E+002	3.7666794E+002	3.0895340E+001	3.7793286E+002	-4.6890607E+000	5.043073735534563E+001	3.3390579E+000	-1.9916942E-004	3.2515781E+001	2.1729556E-001	1.000000000000000E+000	12	1.3462137E-001	3.5620446E-004	-3.374233390132819E-005	1.9492576E-003	2.6371167E-003	2.1630355E-004	2.6459727E-003	4.6890607E+000	-2.066632458704064E-007
1.4131134E+002	3.7842560E+002	2.9574825E+001	3.7957950E+002	-4.4687133E+000	5.118287579106982E+001	3.3390512E+000	-1.7836822E-004	3.8082104E+001	2.3118509E-001	1.000000000000000E+000	12	1.3460863E-001	3.5462566E-004	-3.392290205535311E-005	1.9492576E-003	2.6264857E-003	2.0526587E-004	2.6344943E-003	4.4687133E+000	-1.805681540249205E-007
1.2584569E+002	3.8007510E+002	2.8328915E+001	3.8112939E+002	-4.2626615E+000	5.193840265358449E+001	3.3390577E+000	-2.2560092E-004	4.4642845E+001	2.4664189E-001	1.000000000000000E+000	12	1.3460174E-001	3.5316547E-004	-3.371448172370826E-005	1.8690383E-003	2.6165228E-003	1.9502266E-004	2.6237809E-003	4.2626615E+000	2.084203316448518E-007
1.1218996E+002	3.8159692E+002	2.7291023E+001	3.8257156E+002	-4.0907106E+000	5.268385719569051E+001	3.3390555E+000	-1.9475276E-004	5.1981205E+001	2.6452127E-001	1.000000000000000E+000	12	1.3459924E-001	3.5182762E-004	-3.336978908377609E-005	1.5481616E-003	2.6072308E-003	1.8646375E-004	2.6138900E-003	4.0907106E+000	3.446926399321669E-007
1.0003201E+002	3.8299951E+002	2.6366434E+001	3.8390601E+002	-3.9381399E+000	5.344368835179193E+001	3.3390579E+000	-1.9956195E-004	6.0343395E+001	2.8463134E-001	1.000000000000000E+000	12	1.3459168E-001	3.5058500E-004	-3.329913536447243E-005	2.1899152E-003	2.5986538E-003	1.7889640E-004	2.6048042E-003	3.9381399E+000	7.065371930366253E-008
8.9115974E+001	3.8433142E+002	2.5559128E+001	3.8518036E+002	-3.8047292E+000	5.421075609489344E+001	3.3390534E+000	-2.2614148E-004	6.9874466E+001	3.0766800E-001	1.000000000000000E+000	12	1.3458371E-001	3.4940441E-004	-3.352336583608404E-005	1.8690383E-003	2.5904644E-003	1.7227323E-004	2.5961865E-003	3.8047292E+000	-2.242304716116133E-007
7.9415527E+001	3.8562967E+002	2.4944246E+001	3.8643558E+002	-3.7009904E+000	5.497524165114737E+001	3.3390548E+000	-2.0931022E-004	8.0342316E+001	3.3475792E-001	1.000000000000000E+000	12	1.3458285E-001	3.4826723E-004	-3.332990684715979E-005	1.5481616E-003	2.5823566E-003	1.6703834E-004	2.5877533E-003	3.7009904E+000	1.934589889242500E-007
7.0838745E+001	3.8685645E+002	2.4474335E+001	3.8762985E+002	-3.6199725E+000	5.572638152682339E+001	3.3390539E+000	-2.2578752E-004	9.1799088E+001	3.6595336E-001	1.000000000000000E+000	12	1.3457821E-001	3.4718227E-004	-3.355291347358111E-005	1.9492576E-003	2.5746336E-003	1.6288327E-004	2.5797808E-003	3.6199725E+000	-2.230066264213162E-007
6.3082302E+001	3.8807883E+002	2.4126652E+001	3.8882806E+002	-3.5574694E+000	5.650684676395031E+001	3.3390601E+000	-2.3777258E-004	1.0457203E+002	4.0261918E-001	1.000000000000000E+000	12	1.3456768E-001	3.4608529E-004	-3.353018290720259E-005	1.7888192E-003	2.5668750E-003	1.5958125E-004	2.5718308E-003	3.5574694E+000	2.273056637851185E-008
5.6241817E+001	3.8926376E+002	2.3900658E+001	3.8999683E+002	-3.5135298E+000	5.725131829260499E+001	3.3390627E+000	-2.1005585E-004	1.1839980E+002	4.4468093E-001	1.000000000000000E+000	12	1.3457099E-001	3.4505661E-004	-3.383289755777514E-005	1.8690383E-003	2.5593038E-003	1.5714034E-004	2.5641234E-003	3.5135298E+000	-3.027146505725503E-007
5.0144413E+001	3.9043539E+002	2.3823538E+001	3.9116156E+002	-3.4917374E+000	5.800817438188824E+001	3.3390534E+000	-1.7208731E-004	1.3322672E+002	4.9418718E-001	1.000000000000000E+000	12	1.3456438E-001	3.4401228E-004	-3.411411184089633E-005	1.7888192E-003	2.5517426E-003	1.5570190E-004	2.5564884E-003	3.4917374E+000	-2.812142831211877E-007
4.4671219E+001	3.9164334E+002	2.3864897E+001	3.9236978E+002	-3.4870226E+000	5.877220417818171E+001	3.3390560E+000	-1.8675657E-004	1.4929071E+002	5.5228186E-001	1.000000000000000E+000	12	1.3456725E-001	3.4296027E-004	-3.409621972856176E-005	1.7888192E-003	2.5438976E-003	1.5501311E-004	2.5486161E-003	3.4870226E+000	1.789211233457002E-008
3.9808922E+001	3.9287686E+002	2.4049974E+001	3.9361227E+002	-3.5029924E+000	5.953470749443659E+001	3.3390579E+000	-1.7529365E-004	1.6623601E+002	6.2060755E-001	1.000000000000000E+000	12	1.3456322E-001	3.4186745E-004	-3.397814788208052E-005	2.0294767E-003	2.5358244E-003	1.5523059E-004	2.5405711E-003	3.5029924E+000	1.180718464812396E-007
3.5465305E+001	3.9414844E+002	2.4313913E+001	3.9489764E+002	-3.5299435E+000	6.028512363668415E+001	3.3390582E+000	-2.0172411E-004	1.8457019E+002	6.9968444E-001	1.000000000000000E+000	12	1.3456506E-001	3.4075932E-004	-3.412557157633192E-005	2.1096959E-003	2.5274972E-003	1.5591424E-004	2.5323017E-003	3.5299435E+000	-1.474236942513996E-007
3.1629551E+001	3.9543619E+002	2.4758430E+001	3.9621051E+002	-3.5826371E+000	6.100943777777138E+001	3.3390601E+000	-1.7704550E-004	2.0323758E+002	7.9359376E-001	1.000000000000000E+000	12	1.3456227E-001	3.3962316E-004	-3.453388817745953E-005	1.3075040E-003	2.5189782E-003	1.5771433E-004	2.5239107E-003	3.5826371E+000	-4.083166011276050E-007
2.8170074E+001	3.9675055E+002	2.5263523E+001	3.9755408E+002	-3.6434522E+000	6.181476162940089E+001	3.3390634E+000	-1.5346693E-004	2.2363420E+002	9.0309536E-001	1.000000000000000E+000	12	1.3456076E-001	3.3847161E-004	-3.490300179381383E-005	1.2272848E-003	2.5102969E-003	1.5984589E-004	2.5153810E-003	3.6434522E+000	-3.691136163543035E-007
2.5104435E+001	3.9811679E+002	2.5871292E+001	3.9895651E+002	-3.7180912E+000	6.257093430528766E+001	3.3390493E+000	-2.2593659E-004	2.4504823E+002	1.0304732E+000	1.000000000000000E+000	12	1.3456136E-001	3.3728327E-004	-3.487595566902827E-005	1.7888192E-003	2.5012631E-003	1.6254252E-004	2.5065388E-003	3.7180912E+000	2.704612478556201E-008
2.2385387E+001	3.9952216E+002	2.6632275E+001	4.0040884E+002	-3.8137126E+000	6.325641521785292E+001	3.3390388E+000	-2.9439927E-004	2.6696066E+002	1.1810179E+000	1.000000000000000E+000	12	1.3454801E-001	3.3602657E-004	-3.447890250070810E-005	1.3075040E-003	2.4919170E-003	1.6611197E-004	2.4974474E-003	3.8137126E+000	3.970531683201729E-007
1.9955299E+001	4.0101843E+002	2.7452879E+001	4.0195703E+002	-3.9162383E+000	6.401822456068476E+001	3.3390582E+000	-1.7264730E-004	2.9051862E+002	1.3551599E+000	1.000000000000000E+000	12	1.3455790E-001	3.3475694E-004	-3.402191299135544E-005	1.7086000E-003	2.4820189E-003	1.6991379E-004	2.4878280E-003	3.9162383E+000	4.569895093526537E-007
1.7796129E+001	4.0263589E+002	2.8389717E+001	4.0363553E+002	-4.0332308E+000	6.486253452076926E+001	3.3390570E+000	-1.4414752E-004	3.1501666E+002	1.5583926E+000	1.000000000000000E+000	12	1.3455606E-001	3.3336028E-004	-3.400668955000826E-005	2.1096959E-003	2.4713469E-003	1.7425383E-004	2.4774827E-003	4.0332308E+000	1.522344134718365E-008
1.5857576E+001	4.0428119E+002	2.9442369E+001	4.0535187E+002	-4.1652956E+000	6.558394524842151E+001	3.3390553E+000	-1.4535876E-004	3.4088708E+002	1.7984225E+000	1.000000000000000E+000	12	1.3455606E-001	3.3194877E-004	-3.567967219126068E-005	1.3075040E-003	2.4604762E-003	1.7918779E-004	2.4669925E-003	4.1652956E+000	-1.672982641252425E-006
1.4118974E+001	4.0604437E+002	3.0569357E+001	4.0719345E+002	-4.3054342E+000	6.638626008646679E+001	3.3390634E+000	-2.1933856E-004	3.6874887E+002	2.0782690E+000	1.000000000000000E+000	12	1.3455456E-001	3.3044384E-004	-3.485594756062589E-005	1.4679424E-003	2.4489048E-003	1.8436767E-004	2.4558352E-003	4.3054342E+000	8.237246306347953E-007
1.2600808E+001	4.0787689E+002	3.1851809E+001	4.0911868E+002	-4.4652638E+000	6.727683831549075E+001	3.3390579E+000	-1.9299172E-004	3.9654059E+002	2.4035726E+000	1.000000000000000E+000	12	1.3455664E-001	3.2889389E-004	-3.400924029120748E-005	1.8690383E-003	2.4368593E-003	1.9029854E-004	2.4442784E-003	4.4652638E+000	8.467072694184045E-007
1.1224856E+001	4.0984003E+002	3.3217728E+001	4.1118399E+002	-4.6337214E+000	6.796093224131619E+001	3.3390470E+000	-1.2918010E-004	4.2684424E+002	2.7857161E+000	1.000000000000000E+000	12	1.3455635E-001	3.2724123E-004	-3.591144582296289E-005	2.1899152E-003	2.4240522E-003	1.9647059E-004	2.4320013E-003	4.6337214E+000	-1.902205531755403E-006
1.0003201E+001	4.1185452E+002	3.4639267E+001	4.1330862E+002	-4.8075809E+000	6.872169947746443E+001	3.3390605E+000	-1.7581560E-004	4.5931693E+002	3.2262714E+000	1.000000000000000E+000	12	1.3455796E-001	3.2556293E-004	-3.567992272696089E-005	1.7086000E-003	2.4109872E-003	2.0277750E-004	2.4194994E-003	4.8075809E+000	2.315230960019915E-007
8.9183798E+000	4.1399124E+002	3.6202713E+001	4.1557117E+002	-4.9976888E+000	6.956601325087831E+001	3.3390536E+000	-2.1042927E-004	4.9293884E+002	3.7409723E+000	1.000000000000000E+000	12	1.3455358E-001	3.2377988E-004	-3.476245446223927E-005	2.0294767E-003	2.3971784E-003	2.0962850E-004	2.4063268E-003	4.9976888E+000	9.174682647216197E-007
7.9395342E+000	4.1631253E+002	3.7883606E+001	4.1803265E+002	-5.1994805E+000	7.050470932215103E+001	3.3390584E+000	-1.5902167E-004	5.2914392E+002	4.3456626E+000	1.000000000000000E+000	12	1.3455519E-001	3.2187722E-004	-3.561362071056080E-005	1.7888192E-003	2.3823145E-003	2.1678582E-004	2.3921577E-003	5.1994805E+000	-8.511662483215286E-007
7.0765405E+000	4.1866269E+002	3.9703667E+001	4.2054111E+002	-5.4174151E+000	7.106303046864923E+001	3.3390338E+000	-2.8138908E-004	5.6645905E+002	5.0490870E+000	1.000000000000000E+000	12	1.3455564E-001	3.1995834E-004	-3.518636160166837E-005	1.7888192E-003	2.3672676E-003	2.2449865E-004	2.3778889E-003	5.4174151E+000	4.272591088924310E-007
6.3105822E+000	4.2119571E+002	4.1412823E+001	4.2322672E+002	-5.6153893E+000	7.168319428476389E+001	3.3390143E+000	-5.9264083E-005	6.0899799E+002	5.8309507E+000	1.000000000000000E+000	12	1.3454440E-001	3.1790149E-004	-3.380792563726007E-005	1.2272848E-003	2.3514612E-003	2.3120045E-004	2.3627998E-003	5.6153893E+000	1.378435964408304E-006
5.6205034E+000	4.2383914E+002	4.3332932E+001	4.2604855E+002	-5.8375850E+000	7.236964549073309E+001	3.3390377E+000	1.5877903E-004	6.5347180E+002	6.7599707E+000	1.000000000000000E+000	12	1.3455069E-001	3.1581070E-004	-3.276663459519407E-005	1.8690383E-003	2.3349784E-003	2.3872608E-004	2.3471504E-003	5.8375850E+000	1.041291042066003E-006
5.0144415E+000	4.2644910E+002	4.5404831E+001	4.2885947E+002	-6.0774922E+000	7.312716120664845E+001	3.3390608E+000	4.5052238E-004	6.9902948E+002	7.8355527E+000	1.000000000000000E+000	12	1.3455586E-001	3.1375280E-004	-3.450968389073710E-005	1.6283807E-003	2.3186607E-003	2.4687214E-004	2.3317661E-003	6.0774922E+000	-1.743049295543037E-006
4.4693937E+000	4.2948386E+002	4.7773079E+001	4.3213269E+002	-6.3471298E+000	7.396849505996215E+001	3.3390629E+000	9.2180569E-005	7.4539807E+002	9.1100445E+000	1.000000000000000E+000	12	1.3454893E-001	3.1136023E-004	-3.853885396531000E-005	1.3877231E-003	2.2999193E-003	2.5582855E-004	2.3141040E-003	6.3471298E+000	-4.029170074572899E-006
3.9778514E+000	4.3259784E+002	4.9943996E+001	4.3547134E+002	-6.5857172E+000	7.490520675780135E+001	3.3390582E+000	-3.4658061E-004	8.0110291E+002	1.0537454E+001	1.000000000000000E+000	12	1.3455790E-001	3.0899371E-004	-3.670655890482724E-005	1.9492576E-003	2.2812095E-003	2.6336868E-004	2.2963623E-003	6.5857172E+000	1.832295060482766E-006
3.5511365E+000	4.3583179E+002	5.2468376E+001	4.3897867E+002	-6.8646178E+000	7.594639691387420E+001	3.3390567E+000	-2.4535941E-004	8.5419128E+002	1.2202914E+001	1.000000000000000E+000	12	1.3454832E-001	3.0650309E-004	-3.152932639355094E-005	1.6283807E-003	2.2616847E-003	2.7227690E-004	2.2780150E-003	6.8646178E+000	5.177232511276293E-006
3.1603966E+000	4.3919519E+002	5.4921787E+001	4.4261588E+002	-7.1278925E+000	7.710824248907738E+001	3.3390577E+000	1.0751130E-004	9.1692517E+002	1.4117872E+001	1.000000000000000E+000	12	1.3455340E-001	3.0399588E-004	-3.748151634167551E-005	1.9492576E-003	2.2418348E-003	2.8034364E-004	2.2592954E-003	7.1278925E+000	-5.952189948124571E-006
2.8183618E+000	4.4293402E+002	5.7556553E+001	4.4665793E+002	-7.4037485E+000	7.840362823066607E+001	3.3390584E+000	-2.7827604E-004	9.8113458E+002	1.6291761E+001	1.000000000000000E+000	12	1.3455324E-001	3.0124449E-004	-3.817741665167452E-005	1.8690383E-003	2.2201841E-003	2.8849926E-004	2.2388499E-003	7.4037485E+000	-6.959003099990099E-007
2.5136740E+000	4.4662906E+002	6.0413326E+001	4.5069644E+002	-7.7033648E+000	7.984772677924775E+001	3.3390570E+000	-2.5417533E-004	1.0480414E+003	1.8831099E+001	1.000000000000000E+000	12	1.3455032E-001	2.9853868E-004	-3.032964535583061E-005	1.7086000E-003	2.1987644E-003	2.9741612E-004	2.2187883E-003	7.7033648E+000	7.847771295843916E-006
2.2398219E+000	4.5049115E+002	6.3225391E+001	4.5490628E+002	-7.9891477E+000	8.146236661591684E+001	3.3390586E+000	6.1839593E-005	1.1238676E+003	2.1709724E+001	1.000000000000000E+000	12	1.3454893E-001	2.9577286E-004	-4.089091270063020E-005	1.6283807E-003	2.1769195E-003	3.0552564E-004	2.1982549E-003	7.9891477E+000	-1.056126734479959E-005
1.9970604E+000	4.5471796E+002	6.6174210E+001	4.5950784E+002	-8.2800159E+000	8.326565710159775E+001	3.3390617E+000	-3.6124096E-004	1.2043152E+003	2.4976513E+001	1.000000000000000E+000	12	1.3454929E-001	2.9281175E-004	-3.360106678879573E-005	1.7888192E-003	2.1535566E-003	3.1340285E-004	2.1762415E-003	8.2800159E+000	7.289845911834467E-006
1.7796129E+000	4.5917902E+002	6.9410400E+001	4.6439548E+002	-8.5958652E+000	8.528288895738660E+001	3.3390663E+000	-1.1703989E-004	1.2884573E+003	2.8783472E+001	1.000000000000000E+000	12	1.3455431E-001	2.8974080E-004	-3.415518211250128E-005	1.6283807E-003	2.1291489E-003	3.2184634E-004	2.1533370E-003	8.5958652E+000	-5.541153237055498E-007
1.5846854E+000	4.6375891E+002	7.2839012E+001	4.6944418E+002	-8.9260826E+000	8.754211386464885E+001	3.3390625E+000	-1.1693930E-004	1.3788373E+003	3.3195042E+001	1.000000000000000E+000	12	1.3455075E-001	2.8661714E-004	-4.180904221145041E-005	1.7888192E-003	2.1043809E-003	3.3051879E-004	2.1301787E-003	8.9260826E+000	-7.653860098949124E-006
1.4122382E+000	4.6849866E+002	7.6307571E+001	4.7467233E+002	-9.2509203E+000	9.007118923813687E+001	3.3390651E+000	-3.0421629E-004	1.4768777E+003	3.8167343E+001	1.000000000000000E+000	12	1.3455129E-001	2.8346141E-004	-2.753509399106547E-005	1.6283807E-003	2.0793159E-003	3.3867240E-004	2.1067164E-003	9.2509203E+000	1.427394822038493E-005
1.2596743E+000	4.7343719E+002	7.9888756E+001	4.8013019E+002	-9.5779791E+000	9.290004473252338E+001	3.3390605E+000	5.5346809E-006	1.5815255E+003	4.3785416E+001	1.000000000000000E+000	12	1.3455111E-001	2.8023880E-004	-4.643908155315128E-005	1.5481616E-003	2.0537346E-003	3.4655136E-004	2.0827684E-003	9.5779791E+000	-1.890398756208580E-005
1.1224856E+000	4.7872076E+002	8.3622780E+001	4.8596948E+002	-9.9084358E+000	9.606800114965881E+001	3.3390644E+000	-4.1191958E-004	1.6955662E+003	5.0204880E+001	1.000000000000000E+000	12	1.3455006E-001	2.7686937E-004	-2.636719792841642E-005	1.5481616E-003	2.0270490E-003	3.5408424E-004	2.0577423E-003	9.9084358E+000	2.007188362473486E-005
1.0000638E+000	4.8433655E+002	8.7545494E+001	4.9218503E+002	-1.0245782E+001	9.961617990481318E+001	3.3390622E+000	-3.1316295E-006	1.8178524E+003	5.7513451E+001	1.000000000000000E+000	12	1.3454849E-001	2.7336972E-004	-4.561076497259860E-005	1.6283807E-003	1.9993575E-003	3.6139073E-004	2.0317563E-003	1.0245782E+001	-1.924356704418218E-005