EC-Lab ASCII FILE
Nb header lines : 60                          

Potentio Electrochemical Impedance Spectroscopy

Run on channel : 3 (SN 20921)
User : 
CE vs. WE compliance from -10 V to 10 V
Electrode connection : standard
Ewe ctrl range : min = -10.00 V, max = 10.00 V
Acquisition started on : 12/03/2020 16:54:21
Technique started on : 12/03/2020 16:54:22
Saved on :
	File : DE_206_3_30.mpr
	Directory : P:\Chemistry\Data\VMP3\Kyler\DOE\DE_206\
	Host : 10.0.4.64
Device : VMP3 (SN 1432)
Address : USB
EC-Lab for windows v11.33 (software)
Internet server v11.32 (firmware)
Command interpretor v11.33 (firmware)
Electrode material : 
Initial state : 
Electrolyte : 
Comments : 
Electrode surface area : 0.001 cm²
Characteristic mass : 0.001 g
Equivalent Weight : 0.000 g/eq.
Density : 0.000 g/cm3
Record Analogic IN 1
Cycle Definition : Charge/Discharge alternance
Mode                Single sine         
E (V)               0.0000              
vs.                 Eoc                 
tE (h:m:s)          0:00:0.0000         
record              0                   
dI                  1.000               
unit dI             mA                  
dt (s)              0.000               
fi                  1.000               
unit fi             MHz                 
ff                  1.000               
unit ff             Hz                  
Nd                  20                  
Points              per decade          
spacing             Logarithmic         
Va (mV)             128.0               
pw                  0.50                
Na                  3                   
corr                0                   
E range min (V)     -10.000             
E range max (V)     10.000              
I Range             Auto                
Bandwidth           5                   
nc cycles           0                   
goto Ns'            0                   
nr cycles           0                   
inc. cycle          1                   

freq/Hz	Re(Z)/Ohm	-Im(Z)/Ohm	|Z|/Ohm	Phase(Z)/deg	time/s	<Ewe>/V	<I>/mA	Cs/µF	Cp/µF	cycle number	I Range	|Ewe|/V	|I|/A	(Q-Qo)/mA.h	Analog IN 1/V	Re(Y)/Ohm-1	Im(Y)/Ohm-1	|Y|/Ohm-1	Phase(Y)/deg	dq/mA.h	
1.0000186E+006	1.1295161E+002	6.4755035E+001	1.3019708E+002	-2.9825602E+001	1.949490332539426E+000	3.3107824E+000	-2.3319530E-003	2.4577545E-003	6.0797133E-004	1.000000000000000E+000	11	4.0933341E-003	3.1439522E-005	-8.243531251256274E-007	-2.3782176E-004	6.6633085E-003	3.8200677E-003	7.6806638E-003	2.9825602E+001	-8.243531251256274E-007
8.9124669E+005	1.1776037E+002	6.3161922E+001	1.3362984E+002	-2.8207319E+001	2.544472867477452E+000	3.3111982E+000	-1.6467916E-003	2.8272674E-003	6.3164154E-004	1.000000000000000E+000	11	5.9165335E-003	4.4275544E-005	-1.064348610962144E-006	-7.7488192E-005	6.5946579E-003	3.5371094E-003	7.4833585E-003	2.8207319E+001	-2.399954858365164E-007
7.9433269E+005	1.2346268E+002	6.2252941E+001	1.3826953E+002	-2.6758373E+001	3.140483855822822E+000	3.3115597E+000	-1.2369249E-003	3.2185321E-003	6.5241597E-004	1.000000000000000E+000	11	8.4093753E-003	6.0818715E-005	-1.236482846954068E-006	-3.1798857E-004	6.4577721E-003	3.2561687E-003	7.2322511E-003	2.6758373E+001	-1.721342359919239E-007
7.0794981E+005	1.2965239E+002	6.1681995E+001	1.4357719E+002	-2.5442722E+001	3.736485777451890E+000	3.3118753E+000	-8.9117524E-004	3.6446785E-003	6.7267480E-004	1.000000000000000E+000	11	1.1628189E-002	8.0989106E-005	-1.314614272391837E-006	2.6785929E-006	6.2894057E-003	2.9921785E-003	6.9648945E-003	2.5442722E+001	-7.813142543776982E-008
6.3095681E+005	1.3561554E+002	6.1316296E+001	1.4883301E+002	-2.4329306E+001	4.331473699043272E+000	3.3121393E+000	-6.2464044E-004	4.1138134E-003	6.9822901E-004	1.000000000000000E+000	11	1.5594640E-002	1.0477944E-004	-1.185626281018712E-006	-2.3782176E-004	6.1222487E-003	2.7680718E-003	6.7189396E-003	2.4329306E+001	1.289879913731258E-007
5.6234225E+005	1.4141396E+002	6.1001789E+001	1.5401015E+002	-2.3333937E+001	4.926490340643795E+000	3.3123627E+000	-3.8047219E-004	4.6395604E-003	7.2788593E-004	1.000000000000000E+000	11	2.0311289E-002	1.3188280E-004	-1.170224288991044E-006	8.2845378E-005	5.9620221E-003	2.5718398E-003	6.4930785E-003	2.3333937E+001	1.540199202766719E-008
5.0120619E+005	1.4707230E+002	6.0608681E+001	1.5907127E+002	-2.2396622E+001	5.523488448961871E+000	3.3125331E+000	-2.6136948E-004	5.2392473E-003	7.6059776E-004	1.000000000000000E+000	11	2.5803154E-002	1.6221128E-004	-1.279205015490233E-006	-7.7488192E-005	5.8122911E-003	2.3952525E-003	6.2864902E-003	2.2396622E+001	-1.089807264991882E-007
4.4668572E+005	1.5252058E+002	6.0020855E+001	1.6390556E+002	-2.1480940E+001	6.118473170587095E+000	3.3126476E+000	-2.4664364E-004	5.9363004E-003	7.9603621E-004	1.000000000000000E+000	11	3.2068424E-002	1.9565184E-004	-1.169477422418519E-006	-1.5765498E-004	5.6772903E-003	2.2341628E-003	6.1010742E-003	2.1480940E+001	1.097275930717136E-007
3.9810347E+005	1.5767073E+002	5.9345428E+001	1.6846941E+002	-2.0625751E+001	6.713474238844356E+000	3.3127015E+000	-1.3201460E-004	6.7365402E-003	8.3592895E-004	1.000000000000000E+000	11	3.9157465E-002	2.3243071E-004	-1.272889245144648E-006	8.2845378E-005	5.5553191E-003	2.0909572E-003	5.9357961E-003	2.0625751E+001	-1.034118227261288E-007
3.5480997E+005	1.6269618E+002	5.8494282E+001	1.7289195E+002	-1.9775072E+001	7.308487973787123E+000	3.3127208E+000	-2.2576669E-004	7.6685082E-003	8.7778503E-004	1.000000000000000E+000	11	4.7154482E-002	2.7273959E-004	-1.471675245862166E-006	2.6785929E-006	5.4428680E-003	1.9568785E-003	5.7839593E-003	1.9775072E+001	-1.987860007175186E-007
3.1622997E+005	1.6743651E+002	5.7541538E+001	1.7704805E+002	-1.8965891E+001	7.903495068690972E+000	3.3127286E+000	-1.5493778E-004	8.7465271E-003	9.2388154E-004	1.000000000000000E+000	11	5.6135643E-002	3.1706446E-004	-1.333174000860405E-006	-7.7488192E-005	5.3415569E-003	1.8356893E-003	5.6481841E-003	1.8965891E+001	1.385012450017610E-007
2.8183453E+005	1.7195975E+002	5.6505829E+001	1.8100571E+002	-1.8190479E+001	8.499496110336622E+000	3.3127453E+000	-1.9929511E-004	9.9938465E-003	9.7394543E-004	1.000000000000000E+000	11	6.6172138E-002	3.6558040E-004	-1.761547352522030E-006	-1.5765498E-004	5.2485853E-003	1.7246807E-003	5.5246875E-003	1.8190479E+001	-4.283733516616242E-007
2.5118764E+005	1.7629129E+002	5.5406075E+001	1.8479300E+002	-1.7447258E+001	9.094480351923266E+000	3.3127239E+000	-2.5073762E-004	1.1435745E-002	1.0280358E-003	1.000000000000000E+000	11	7.7345237E-002	4.1855068E-004	-2.184217335201134E-006	1.6301216E-004	5.1624975E-003	1.6225061E-003	5.4114605E-003	1.7447258E+001	-4.226699826791040E-007
2.2387173E+005	1.8043137E+002	5.4306580E+001	1.8842686E+002	-1.6750845E+001	9.689487233554246E+000	3.3127434E+000	-2.7906650E-004	1.3090867E-002	1.0873958E-003	1.000000000000000E+000	11	8.9654803E-002	4.7580691E-004	-2.495967311711866E-006	8.2845378E-005	5.0819032E-003	1.5295610E-003	5.3070989E-003	1.6750845E+001	-3.117499765107320E-007
1.9954350E+005	1.8437076E+002	5.3192104E+001	1.9189053E+002	-1.6093178E+001	1.028649142189533E+001	3.3127556E+000	-1.6499749E-004	1.4994618E-002	1.1521861E-003	1.000000000000000E+000	11	1.0308659E-001	5.3721562E-004	-2.537082553135406E-006	3.2334571E-004	5.0070845E-003	1.4445749E-003	5.2113044E-003	1.6093178E+001	-4.111524142354023E-008
1.7783180E+005	1.8812245E+002	5.2120758E+001	1.9520920E+002	-1.5485798E+001	1.074548221702571E+001	3.3127601E+000	-2.2221770E-004	1.7171174E-002	1.2241113E-003	1.000000000000000E+000	11	1.1761331E-001	6.0249883E-004	-2.179564776842502E-006	-7.7488192E-005	4.9367379E-003	1.3677609E-003	5.1227096E-003	1.5485798E+001	3.575177762929041E-007
1.5848613E+005	1.9173969E+002	5.1119812E+001	1.9843726E+002	-1.4928411E+001	1.120549722554279E+001	3.3127878E+000	-1.2771426E-004	1.9644439E-002	1.3036821E-003	1.000000000000000E+000	11	1.3323866E-001	6.7143975E-004	-2.573595944486442E-006	-7.7488192E-005	4.8692897E-003	1.2982036E-003	5.0393762E-003	1.4928411E+001	-3.940311676439403E-007
1.4125594E+005	1.9525429E+002	5.0151230E+001	2.0159212E+002	-1.4405079E+001	1.180249501389335E+001	3.3128586E+000	-7.9442143E-005	2.2466313E-002	1.3904261E-003	1.000000000000000E+000	11	1.2972431E-001	6.4349890E-004	-2.219830611719064E-006	-7.7488192E-005	4.8045586E-003	1.2340549E-003	4.9605113E-003	1.4405079E+001	3.537653327673779E-007
1.2590930E+005	1.9860210E+002	4.9263950E+001	2.0462094E+002	-1.3931231E+001	1.239948994890437E+001	3.3129084E+000	-8.3170016E-005	2.5658609E-002	1.4872755E-003	1.000000000000000E+000	11	1.2968917E-001	6.3380203E-004	-2.571361285762072E-006	-3.1798857E-004	4.7433339E-003	1.1766007E-003	4.8870854E-003	1.3931231E+001	-3.515306740430081E-007
1.1220494E+005	2.0184904E+002	4.8462418E+001	2.0758527E+002	-1.3500738E+001	1.299447560383123E+001	3.3129554E+000	-3.5847097E-006	2.9268676E-002	1.5952184E-003	1.000000000000000E+000	11	1.2970978E-001	6.2485063E-004	-2.845052131091102E-006	-3.1798857E-004	4.6841810E-003	1.1246362E-003	4.8172977E-003	1.3500738E+001	-2.736908453290301E-007
1.0000371E+005	2.0501266E+002	4.7739243E+001	2.1049757E+002	-1.3108297E+001	1.358947309877840E+001	3.3129647E+000	-4.7200036E-005	3.3337150E-002	1.7146888E-003	1.000000000000000E+000	11	1.2982118E-001	6.1673479E-004	-3.404237546209414E-006	-7.7488192E-005	4.6268613E-003	1.0774108E-003	4.7506485E-003	1.3108297E+001	-5.591854151183117E-007
8.9129305E+004	2.0805684E+002	4.7097725E+001	2.1332098E+002	-1.2755048E+001	1.418548632707098E+001	3.3129973E+000	-3.5643738E-005	3.7914008E-002	1.8481294E-003	1.000000000000000E+000	11	1.2946244E-001	6.0689030E-004	-2.392627541355776E-006	1.6301216E-004	4.5720907E-003	1.0349819E-003	4.6877712E-003	1.2755048E+001	1.011610004853638E-006
7.9433273E+004	2.1101682E+002	4.6557659E+001	2.1609190E+002	-1.2442108E+001	1.478048248865525E+001	3.3130150E+000	-8.0582795E-006	4.3035470E-002	1.9977072E-003	1.000000000000000E+000	11	1.2945761E-001	5.9908588E-004	-2.859698911570983E-006	-7.7488192E-005	4.5189764E-003	9.9704368E-004	4.6276608E-003	1.2442108E+001	-4.670713702152068E-007
7.0794977E+004	2.1389902E+002	4.6173382E+001	2.1882590E+002	-1.2181261E+001	1.537648865030496E+001	3.3130305E+000	-3.3966255E-005	4.8688456E-002	2.1677637E-003	1.000000000000000E+000	11	1.2942335E-001	5.9144438E-004	-1.837066442911035E-006	-1.5765498E-004	4.4669528E-003	9.6426025E-004	4.5698429E-003	1.2181261E+001	1.022632468659948E-006
6.3093828E+004	2.1672379E+002	4.5863674E+001	2.2152353E+002	-1.1948798E+001	1.583648992548115E+001	3.3130407E+000	8.7185035E-006	5.5000219E-002	2.3575579E-003	1.000000000000000E+000	11	1.4075026E-001	6.3537387E-004	-2.279608321963880E-006	-3.9815533E-004	4.4163843E-003	9.3460723E-004	4.5141932E-003	1.1948798E+001	-4.425418790528459E-007
5.6237012E+004	2.1951230E+002	4.5718933E+001	2.2422281E+002	-1.1765088E+001	1.643147800708539E+001	3.3130710E+000	-5.5773988E-005	6.1901595E-002	2.5735607E-003	1.000000000000000E+000	11	1.3039376E-001	5.8153656E-004	-3.413836839133485E-006	2.4317895E-004	4.3661562E-003	9.0936135E-004	4.4598496E-003	1.1765088E+001	-1.134228517169605E-006
5.0122477E+004	2.2224168E+002	4.5702671E+001	2.2689227E+002	-1.1620532E+001	1.689049482889823E+001	3.3130836E+000	4.9162460E-005	6.9477789E-002	2.8189656E-003	1.000000000000000E+000	11	1.3996741E-001	6.1688927E-004	-2.907348023926413E-006	3.2334571E-004	4.3170406E-003	8.8777347E-004	4.4073779E-003	1.1620532E+001	5.064888152070728E-007
4.4666715E+004	2.2496181E+002	4.5842846E+001	2.2958524E+002	-1.1518061E+001	1.748547200384201E+001	3.3131053E+000	2.5118728E-005	7.7725686E-002	3.0989870E-003	1.000000000000000E+000	11	1.3006550E-001	5.6652381E-004	-3.596204734636962E-006	1.6301216E-004	4.2679650E-003	8.6972845E-004	4.3556807E-003	1.1518061E+001	-6.888567107105494E-007
3.9814063E+004	2.2766998E+002	4.6145428E+001	2.3229942E+002	-1.1457811E+001	1.794449018561863E+001	3.3131027E+000	4.8416492E-005	8.6627334E-002	3.4183464E-003	1.000000000000000E+000	11	1.3764146E-001	5.9251743E-004	-3.300942957247672E-006	2.6785929E-006	4.2189998E-003	8.5513055E-004	4.3047890E-003	1.1457811E+001	2.952617773892901E-007
3.5480996E+004	2.3038060E+002	4.6590961E+001	2.3504454E+002	-1.1432997E+001	1.854149354729452E+001	3.3131275E+000	4.6179881E-005	9.6277028E-002	3.7829070E-003	1.000000000000000E+000	11	1.2974571E-001	5.5200479E-004	-2.601389731461596E-006	1.6301216E-004	4.1700914E-003	8.4333745E-004	4.2545130E-003	1.1432997E+001	6.995532257860759E-007
3.1621143E+004	2.3312177E+002	4.7209442E+001	2.3785393E+002	-1.1448135E+001	1.900049479576410E+001	3.3131192E+000	4.4502744E-005	1.0661387E-001	4.2000143E-003	1.000000000000000E+000	11	1.3539924E-001	5.6925375E-004	-2.827274307351217E-006	-7.7488192E-005	4.1206162E-003	8.3446520E-004	4.2042611E-003	1.1448135E+001	-2.258845758896212E-007
2.8188096E+004	2.3591003E+002	4.7998726E+001	2.4074348E+002	-1.1500533E+001	1.945949255090090E+001	3.3131034E+000	3.2574211E-005	1.1763179E-001	4.6760053E-003	1.000000000000000E+000	11	1.4038825E-001	5.8314455E-004	-3.260407364958357E-006	-3.9815533E-004	4.0704026E-003	8.2817214E-004	4.1537988E-003	1.1500533E+001	-4.331330576071402E-007
2.5116910E+004	2.3875262E+002	4.8957359E+001	2.4372041E+002	-1.1588137E+001	2.005549585921108E+001	3.3131289E+000	3.3132303E-005	1.2943029E-001	5.2226158E-003	1.000000000000000E+000	11	1.2965372E-001	5.3197728E-004	-2.564758873665899E-006	-2.3782176E-004	4.0194290E-003	8.2420302E-004	4.1030622E-003	1.1588137E+001	6.956484912924580E-007
2.2389027E+004	2.4166066E+002	5.0073643E+001	2.4679393E+002	-1.1706394E+001	2.051449009435601E+001	3.3131239E+000	2.3253762E-005	1.4196318E-001	5.8442010E-003	1.000000000000000E+000	11	1.3293093E-001	5.3863128E-004	-2.514679004766448E-006	-1.5765498E-004	3.9676833E-003	8.2212948E-004	4.0519633E-003	1.1706394E+001	5.007986889945156E-008
1.9948783E+004	2.4467497E+002	5.1379524E+001	2.5001140E+002	-1.1859282E+001	2.097447288953117E+001	3.3131220E+000	3.3505556E-005	1.5527932E-001	6.5580420E-003	1.000000000000000E+000	11	1.3567387E-001	5.4267072E-004	-2.893039551235335E-006	-2.3782176E-004	3.9144428E-003	8.2199747E-004	3.9998177E-003	1.1859282E+001	-3.783605464688868E-007
1.7786895E+004	2.4777388E+002	5.2853420E+001	2.5334834E+002	-1.2041468E+001	2.143449080470600E+001	3.3131194E+000	1.4866163E-005	1.6929609E-001	7.3681250E-003	1.000000000000000E+000	11	1.3791592E-001	5.4437271E-004	-3.188019072318032E-006	2.4317895E-004	3.8602853E-003	8.2344952E-004	3.9471346E-003	1.2041468E+001	-2.949795210826978E-007
1.5847686E+004	2.5101857E+002	5.4472187E+001	2.5686093E+002	-1.2243616E+001	2.189349447985296E+001	3.3131285E+000	3.9283350E-005	1.8436542E-001	8.2914978E-003	1.000000000000000E+000	11	1.3974108E-001	5.4403400E-004	-3.656199032154594E-006	2.6785929E-006	3.8046064E-003	8.2561711E-004	3.8931572E-003	1.2243616E+001	-4.681799598365614E-007
1.4121879E+004	2.5445178E+002	5.6273720E+001	2.6060016E+002	-1.2470618E+001	2.248847314811428E+001	3.3131285E+000	-4.8879581E-005	2.0027281E-001	9.3386462E-003	1.000000000000000E+000	11	1.2931573E-001	4.9622275E-004	-4.003933071719883E-006	8.2845378E-005	3.7467624E-003	8.2862168E-004	3.8372963E-003	1.2470618E+001	-3.477340395652895E-007
1.2590932E+004	2.5797705E+002	5.8243706E+001	2.6447021E+002	-1.2722416E+001	2.294749756992678E+001	3.3131270E+000	-3.6950383E-005	2.1702674E-001	1.0525864E-002	1.000000000000000E+000	11	1.3035730E-001	4.9289974E-004	-4.134935047521139E-006	2.6785929E-006	3.6883112E-003	8.3271321E-004	3.7811440E-003	1.2722416E+001	-1.310019758012561E-007
1.1217711E+004	2.6174036E+002	6.0359901E+001	2.6860999E+002	-1.2985947E+001	2.340648247170611E+001	3.3131230E+000	-6.7330744E-005	2.3505387E-001	1.1869164E-002	1.000000000000000E+000	11	1.3117032E-001	4.8833003E-004	-3.643966084451272E-006	-3.9815533E-004	3.6276581E-003	8.3657372E-004	3.7228698E-003	1.2985947E+001	4.909689630698669E-007
1.0002229E+004	2.6565503E+002	6.2634697E+001	2.7293900E+002	-1.3266601E+001	2.386648750692257E+001	3.3131282E+000	9.0884178E-006	2.5404364E-001	1.3378491E-002	1.000000000000000E+000	11	1.3178405E-001	4.8283336E-004	-3.153884614222786E-006	2.6785929E-006	3.5660451E-003	8.4078277E-004	3.6638223E-003	1.3266601E+001	4.900814702284860E-007
8.9149297E+003	2.6984253E+002	6.5039070E+001	2.7756995E+002	-1.3551305E+001	2.434890080985497E+001	3.3131509E+000	1.1884283E-005	2.7449086E-001	1.5070638E-002	1.000000000000000E+000	11	1.3227713E-001	4.7655424E-004	-3.328702966759819E-006	3.2334571E-004	3.5023983E-003	8.4416906E-004	3.6026954E-003	1.3551305E+001	-1.748183525370325E-007
7.9439976E+003	2.7423254E+002	6.7546593E+001	2.8242880E+002	-1.3837161E+001	2.487499131483492E+001	3.3131623E+000	1.9525456E-005	2.9660439E-001	1.6965494E-002	1.000000000000000E+000	11	1.3261688E-001	4.6955864E-004	-3.278972716790223E-006	-7.7488192E-005	3.4379617E-003	8.4680907E-004	3.5407154E-003	1.3837161E+001	4.973024996959614E-008
7.0822334E+003	2.7889120E+002	7.0245232E+001	2.8760162E+002	-1.4137216E+001	2.545186675558216E+001	3.3131611E+000	-4.8911188E-006	3.1991386E-001	1.9084645E-002	1.000000000000000E+000	11	1.3288197E-001	4.6203483E-004	-2.922922993694859E-006	1.6301216E-004	3.3717249E-003	8.4924739E-004	3.4770318E-003	1.4137216E+001	3.560497230953638E-007
6.3077344E+003	2.8385333E+002	7.3006813E+001	2.9309164E+002	-1.4423794E+001	2.608656145233545E+001	3.3131697E+000	-1.7021675E-004	3.4560764E-001	2.1443874E-002	1.000000000000000E+000	11	1.3307267E-001	4.5403093E-004	-3.357169573392538E-006	4.8367929E-004	3.3043583E-003	8.4987783E-004	3.4119021E-003	1.4423794E+001	-4.342465796976787E-007
5.6210552E+003	2.8911832E+002	7.5886200E+001	2.9891156E+002	-1.4706939E+001	2.678726324564195E+001	3.3131773E+000	-1.3741279E-004	3.7311220E-001	2.4048038E-002	1.000000000000000E+000	11	1.3320193E-001	4.4562321E-004	-3.288500357171870E-006	2.6785929E-006	3.2358635E-003	8.4933173E-004	3.3454711E-003	1.4706939E+001	6.866921622066776E-008
5.0116035E+003	2.9465707E+002	7.8783218E+001	3.0500751E+002	-1.4969171E+001	2.754767293513578E+001	3.3131647E+000	-1.5362892E-004	4.0309715E-001	2.6894042E-002	1.000000000000000E+000	11	1.3328369E-001	4.3698493E-004	-3.085820813774868E-006	-1.5765498E-004	3.1673480E-003	8.4686198E-004	3.2786077E-003	1.4969171E+001	2.026795433970016E-007
4.4664292E+003	3.0052856E+002	8.1756645E+001	3.1145074E+002	-1.5218613E+001	2.830670163784816E+001	3.3131821E+000	-1.1225126E-004	4.3584955E-001	3.0033365E-002	1.000000000000000E+000	11	1.3332897E-001	4.2809008E-004	-3.087617389244972E-006	4.0351250E-004	3.0981826E-003	8.4283843E-004	3.2107807E-003	1.5218613E+001	-1.796575470103385E-009
3.9812742E+003	3.0675626E+002	8.4706139E+001	3.1823660E+002	-1.5436692E+001	2.906669295395113E+001	3.3131859E+000	-1.2287546E-004	4.7193608E-001	3.3435874E-002	1.000000000000000E+000	11	1.3335982E-001	4.1905872E-004	-2.840855115317633E-006	-4.7832212E-004	3.0289576E-003	8.3640119E-004	3.1423161E-003	1.5436692E+001	2.467622739273390E-007
3.5465955E+003	3.1339999E+002	8.7688072E+001	3.2543625E+002	-1.5631409E+001	2.982692555003450E+001	3.3131759E+000	-1.9127996E-004	5.1176190E-001	3.7154991E-002	1.000000000000000E+000	11	1.3336131E-001	4.0979244E-004	-2.541921222516167E-006	2.6785929E-006	2.9591511E-003	8.2795869E-004	3.0727985E-003	1.5631409E+001	2.989338928014655E-007
3.1610112E+003	3.2036679E+002	9.0632568E+001	3.3294016E+002	-1.5796341E+001	3.058669539947732E+001	3.3131747E+000	-1.5530713E-004	5.5553293E-001	4.1166697E-002	1.000000000000000E+000	11	1.3335550E-001	4.0053893E-004	-2.284161578031166E-006	-7.7488192E-005	2.8901151E-003	8.1762078E-004	3.0035428E-003	1.5796341E+001	2.577596444850009E-007
2.8172952E+003	3.2771448E+002	9.3399414E+001	3.4076419E+002	-1.5907680E+001	3.134695418222691E+001	3.3131692E+000	-1.8289243E-004	6.0484433E-001	4.5438506E-002	1.000000000000000E+000	11	1.3334173E-001	3.9130205E-004	-2.261767570935060E-006	-7.1882247E-004	2.8221996E-003	8.0433371E-004	2.9345807E-003	1.5907680E+001	2.239400709610601E-008
2.5108032E+003	3.3547925E+002	9.6039581E+001	3.4895547E+002	-1.5975135E+001	3.210670677834423E+001	3.3131890E+000	-1.6667714E-004	6.6002017E-001	4.9993977E-002	1.000000000000000E+000	11	1.3332427E-001	3.8206670E-004	-2.516325371424703E-006	2.4317895E-004	2.7550256E-003	7.8869710E-004	2.8656952E-003	1.5975135E+001	-2.545578004896421E-007
2.2378516E+003	3.4357239E+002	9.8523453E+001	3.5741971E+002	-1.6000872E+001	3.286692054776358E+001	3.3131740E+000	-1.8997624E-004	7.2185379E-001	5.4849349E-002	1.000000000000000E+000	11	1.3330555E-001	3.7296643E-004	-2.820007476003310E-006	2.6785929E-006	2.6894361E-003	7.7122770E-004	2.7978311E-003	1.6000872E+001	-3.036821045786078E-007
1.9956389E+003	3.5206131E+002	1.0070045E+002	3.6617993E+002	-1.5962171E+001	3.387769686245883E+001	3.3131676E+000	-1.2995282E-004	7.9196644E-001	5.9893612E-002	1.000000000000000E+000	12	1.3551685E-001	3.7008268E-004	-2.764280572360601E-006	2.4317895E-004	2.6256039E-003	7.5100409E-004	2.7308979E-003	1.5962171E+001	5.572690364270914E-008
1.7782927E+003	3.6088531E+002	1.0256573E+002	3.7517722E+002	-1.5865460E+001	3.463693089850130E+001	3.3131664E+000	-1.6621570E-004	8.7259877E-001	6.5214813E-002	1.000000000000000E+000	12	1.3529363E-001	3.6061261E-004	-2.844410014938653E-006	2.4317895E-004	2.5638717E-003	7.2866736E-004	2.6654070E-003	1.5865460E+001	-8.012944257805229E-008
1.5855076E+003	3.6998444E+002	1.0409428E+002	3.8434894E+002	-1.5713827E+001	3.539668978794361E+001	3.3131611E+000	-1.7891264E-004	9.6432829E-001	7.0733853E-002	1.000000000000000E+000	12	1.3506266E-001	3.5140637E-004	-3.169580503394375E-006	4.8367929E-004	2.5045637E-003	7.0465333E-004	2.6018023E-003	1.5713827E+001	-3.251704884557211E-007
1.4118373E+003	3.7940378E+002	1.0520406E+002	3.9371960E+002	-1.5498048E+001	3.615821441073786E+001	3.3131673E+000	-1.5601778E-004	1.0715268E+000	7.6505721E-002	1.000000000000000E+000	12	1.3483147E-001	3.4245558E-004	-3.312543656101399E-006	2.6785929E-006	2.4475276E-003	6.7866966E-004	2.5398787E-003	1.5498048E+001	-1.429631527070242E-007
1.2587914E+003	3.8894843E+002	1.0581593E+002	4.0308545E+002	-1.5219338E+001	3.691796548684943E+001	3.3131640E+000	-1.8823452E-004	1.1948553E+000	8.2342327E-002	1.000000000000000E+000	12	1.3461918E-001	3.3397181E-004	-3.667939411903919E-006	2.6785929E-006	2.3938545E-003	6.5126357E-004	2.4808636E-003	1.5219338E+001	-3.553957558025205E-007
1.1217948E+003	3.9862677E+002	1.0589679E+002	4.1245294E+002	-1.4877233E+001	3.767643402950489E+001	3.3131640E+000	-1.6151866E-004	1.3397504E+000	8.8316262E-002	1.000000000000000E+000	12	1.3441530E-001	3.2589244E-004	-3.489430545879360E-006	8.2845378E-005	2.3432449E-003	6.2249228E-004	2.4245190E-003	1.4877233E+001	1.785088660245596E-007
1.0003201E+003	4.0827182E+002	1.0546487E+002	4.2167371E+002	-1.4484031E+001	3.843568153228989E+001	3.3131628E+000	-1.8711668E-004	1.5085973E+000	9.4370432E-002	1.000000000000000E+000	12	1.3422906E-001	3.1832448E-004	-3.588205144583804E-006	-7.7488192E-005	2.2961292E-003	5.9313670E-004	2.3715019E-003	1.4484031E+001	-9.877459870444404E-008
8.9142657E+002	4.1790604E+002	1.0450310E+002	4.3077414E+002	-1.4039674E+001	3.919442714159959E+001	3.3131678E+000	-1.3008469E-004	1.7084621E+000	1.0054592E-001	1.000000000000000E+000	12	1.3405795E-001	3.1120243E-004	-3.696692870346952E-006	4.0351250E-004	2.2520572E-003	5.6315755E-004	2.3214021E-003	1.4039674E+001	-1.084877257631485E-007
7.9423773E+002	4.2741406E+002	1.0297413E+002	4.3964355E+002	-1.3545758E+001	3.995392181770876E+001	3.3131604E+000	-2.0208850E-004	1.9459940E+000	1.0675699E-001	1.000000000000000E+000	12	1.3390943E-001	3.0458637E-004	-3.600838119269206E-006	1.6301216E-004	2.2112986E-003	5.3275394E-004	2.2745698E-003	1.3545758E+001	9.585475107774585E-008
7.0750946E+002	4.3669058E+002	1.0090517E+002	4.4819696E+002	-1.3010862E+001	4.071648166721570E+001	3.3131649E+000	-1.5491879E-004	2.2293305E+000	1.1299610E-001	1.000000000000000E+000	12	1.3377613E-001	2.9847620E-004	-3.822510296583964E-006	2.6785929E-006	2.1738822E-003	5.0231442E-004	2.2311620E-003	1.3010862E+001	-2.216721773147580E-007
6.3100964E+002	4.4553668E+002	9.8408333E+001	4.5627530E+002	-1.2455280E+001	4.147444474321674E+001	3.3131726E+000	-1.4720052E-004	2.5630214E+000	1.1922356E-001	1.000000000000000E+000	12	1.3366291E-001	2.9294356E-004	-4.029493478749322E-006	2.4317895E-004	2.1400778E-003	4.7269170E-004	2.1916593E-003	1.2455280E+001	-2.069831821653578E-007
5.6233929E+002	4.5403641E+002	9.5447655E+001	4.6396048E+002	-1.1871866E+001	4.223093208586215E+001	3.3131633E+000	-1.5823814E-004	2.9652169E+000	1.2549458E-001	1.000000000000000E+000	12	1.3356471E-001	2.8787949E-004	-4.290818892086261E-006	-7.7488192E-005	2.1092531E-003	4.4340774E-004	2.1553559E-003	1.1871866E+001	-2.613254133369388E-007
5.0144415E+002	4.6199402E+002	9.2199043E+001	4.7110416E+002	-1.1286110E+001	4.298816449512378E+001	3.3131678E+000	-1.4378937E-004	3.4424777E+000	1.3185303E-001	1.000000000000000E+000	12	1.3347714E-001	2.8332829E-004	-4.268921513191243E-006	-1.5765498E-004	2.0816247E-003	4.1542490E-004	2.1226727E-003	1.1286110E+001	2.189737889501754E-008
4.4685895E+002	4.6956305E+002	8.8637070E+001	4.7785562E+002	-1.0689656E+001	4.374493701109895E+001	3.3131669E+000	-1.4846887E-004	4.0182252E+000	1.3825208E-001	1.000000000000000E+000	12	1.3341144E-001	2.7918775E-004	-4.454933319687067E-006	2.6785929E-006	2.0563665E-003	3.8817001E-004	2.0926823E-003	1.0689656E+001	-1.860118064958237E-007
3.9808920E+002	4.7651996E+002	8.4890472E+001	4.8402237E+002	-1.0101089E+001	4.450773758068681E+001	3.3131649E+000	-1.6910784E-004	4.7095647E+000	1.4486645E-001	1.000000000000000E+000	12	1.3334842E-001	2.7550053E-004	-4.387255855947539E-006	-3.9815533E-004	2.0339966E-003	3.6234988E-004	2.0660202E-003	1.0101089E+001	6.767746373952783E-008
3.5465955E+002	4.8299930E+002	8.1082382E+001	4.8975778E+002	-9.5295410E+000	4.526793036345043E+001	3.3131697E+000	-1.8359441E-004	5.5345459E+000	1.5169536E-001	1.000000000000000E+000	12	1.3330039E-001	2.7217617E-004	-4.603055381241979E-006	8.2845378E-005	2.0136491E-003	3.3803668E-004	2.0418256E-003	9.5295410E+000	-2.157995252944392E-007
3.1631586E+002	4.8882053E+002	7.7233345E+001	4.9488434E+002	-8.9784765E+000	4.602489847940160E+001	3.3131654E+000	-1.5465902E-004	6.5146980E+000	1.5867065E-001	1.000000000000000E+000	12	1.3325277E-001	2.6926043E-004	-4.376702132271021E-006	-1.5765498E-004	1.9959148E-003	3.1535330E-004	2.0206741E-003	8.9784765E+000	2.263532489709580E-007
2.8189429E+002	4.9417371E+002	7.3441628E+001	4.9960117E+002	-8.4531422E+000	4.678041995523381E+001	3.3131638E+000	-1.3782362E-004	7.6876140E+000	1.6612281E-001	1.000000000000000E+000	12	1.3321522E-001	2.6664312E-004	-4.616904005903052E-006	3.2334571E-004	1.9798521E-003	2.9423574E-004	2.0015966E-003	8.4531422E+000	-2.402018736320316E-007
2.5104436E+002	4.9909470E+002	6.9749741E+001	5.0394498E+002	-7.9557028E+000	4.753694052455830E+001	3.3131649E+000	-1.5003640E-004	9.0892286E+000	1.7411894E-001	1.000000000000000E+000	12	1.3318534E-001	2.6428548E-004	-4.536973805375358E-006	4.0351250E-004	1.9652450E-003	2.7464796E-004	1.9843436E-003	7.9557028E+000	7.993020052769405E-008
2.2392513E+002	5.0353067E+002	6.6285843E+001	5.0787494E+002	-7.4994154E+000	4.829972957413702E+001	3.3131547E+000	-1.5268332E-004	1.0722512E+001	1.8265204E-001	1.000000000000000E+000	12	1.3316369E-001	2.6219781E-004	-4.435548129127710E-006	2.4317895E-004	1.9521463E-003	2.5698467E-004	1.9689887E-003	7.4994154E+000	1.014256762476478E-007
1.9955299E+002	5.0756274E+002	6.2963497E+001	5.1145316E+002	-7.0714545E+000	4.906017961024190E+001	3.3131626E+000	-1.2275969E-004	1.2666978E+001	1.9197248E-001	1.000000000000000E+000	12	1.3313919E-001	2.6031552E-004	-4.195163529489946E-006	-2.3782176E-004	1.9403407E-003	2.4070057E-004	1.9552133E-003	7.0714545E+000	2.403845996377641E-007
1.7778128E+002	5.1123148E+002	5.9897911E+001	5.1472845E+002	-6.6825347E+000	4.982723745997646E+001	3.3131640E+000	-7.2849805E-005	1.4945912E+001	2.0239018E-001	1.000000000000000E+000	12	1.3312334E-001	2.5862828E-004	-4.367988173139262E-006	2.4317895E-004	1.9295731E-003	2.2607646E-004	1.9427720E-003	6.6825347E+000	-1.728246436493160E-007
1.5842838E+002	5.1463019E+002	5.7072495E+001	5.1778522E+002	-6.3282437E+000	5.059373066975968E+001	3.3131595E+000	-1.3055331E-004	1.7601931E+001	2.1385270E-001	1.000000000000000E+000	12	1.3310716E-001	2.5707021E-004	-4.213343254437657E-006	1.6301216E-004	1.9195348E-003	2.1287643E-004	1.9313027E-003	6.3282437E+000	1.546449187016049E-007
1.4131134E+002	5.1775671E+002	5.4542377E+001	5.2062164E+002	-6.0135665E+000	5.134688859884045E+001	3.3131626E+000	-1.2833464E-004	2.0649477E+001	2.2663802E-001	1.000000000000000E+000	12	1.3309918E-001	2.5565433E-004	-4.395629674127122E-006	-1.5765498E-004	1.9102109E-003	2.0122857E-004	1.9207807E-003	6.0135665E+000	-1.822864196894644E-007
1.2584569E+002	5.2064111E+002	5.2240265E+001	5.2325537E+002	-5.7297864E+000	5.210242543471395E+001	3.3131590E+000	-1.3871974E-004	2.4208975E+001	2.4130136E-001	1.000000000000000E+000	12	1.3308795E-001	2.5434606E-004	-4.310607355320018E-006	2.4317895E-004	1.9015644E-003	1.9079982E-004	1.9111127E-003	5.7297864E+000	8.502231880710370E-008
1.1218996E+002	5.2333124E+002	5.0230843E+001	5.2573639E+002	-5.4826183E+000	5.284783013681590E+001	3.3131573E+000	-1.4323182E-004	2.8242018E+001	2.5781047E-001	1.000000000000000E+000	12	1.3307902E-001	2.5312879E-004	-4.265181557677958E-006	1.6301216E-004	1.8933923E-003	1.8173325E-004	1.9020940E-003	5.4826183E+000	4.542579764206019E-008
1.0003201E+002	5.2583276E+002	4.8527245E+001	5.2806720E+002	-5.2726898E+000	5.360771134625247E+001	3.3131626E+000	-7.2235343E-005	3.2786533E+001	2.7687797E-001	1.000000000000000E+000	12	1.3306525E-001	2.5198545E-004	-4.435535506188494E-006	1.6301216E-004	1.8856854E-003	1.7402323E-004	1.8936984E-003	5.2726898E+000	-1.703539485105367E-007
8.9115974E+001	5.2832123E+002	4.7086731E+001	5.3041541E+002	-5.0930405E+000	5.437471836934856E+001	3.3131645E+000	-1.1327115E-004	3.7928532E+001	2.9890341E-001	1.000000000000000E+000	12	1.3306794E-001	2.5087493E-004	-4.638289966001240E-006	2.6785929E-006	1.8778713E-003	1.6736564E-004	1.8853148E-003	5.0930405E+000	-2.027544598127460E-007
7.9415527E+001	5.3067444E+002	4.5851372E+001	5.3265161E+002	-4.9382095E+000	5.513923152562347E+001	3.3131657E+000	-1.3801243E-004	4.3708145E+001	3.2387733E-001	1.000000000000000E+000	12	1.3305995E-001	2.4980670E-004	-4.437869142187992E-006	8.2845378E-005	1.8704310E-003	1.6160910E-004	1.8773997E-003	4.9382095E+000	2.004208238132487E-007
7.0838745E+001	5.3291455E+002	4.4967461E+001	5.3480835E+002	-4.8232069E+000	5.589039100127411E+001	3.3131554E+000	-1.2574487E-004	4.9963280E+001	3.5322487E-001	1.000000000000000E+000	12	1.3305646E-001	2.4879278E-004	-4.522109947594193E-006	-1.5765498E-004	1.8632074E-003	1.5721792E-004	1.8698287E-003	4.8232069E+000	-8.424080540620108E-008
6.3082302E+001	5.3517853E+002	4.4218784E+001	5.3700220E+002	-4.7232981E+000	5.667081383839832E+001	3.3131659E+000	-1.1783961E-004	5.7056591E+001	3.8687199E-001	1.000000000000000E+000	12	1.3305497E-001	2.4777360E-004	-4.673847031305842E-006	4.0351250E-004	1.8558657E-003	1.5333972E-004	1.8621897E-003	4.7232981E+000	-1.517370837116488E-007
5.6241817E+001	5.3743457E+002	4.3811943E+001	5.3921741E+002	-4.6604757E+000	5.741435168703902E+001	3.3131652E+000	-1.3133808E-004	6.4590446E+001	4.2640817E-001	1.000000000000000E+000	12	1.3305065E-001	2.4674769E-004	-4.609168713335141E-006	8.2845378E-005	1.8484078E-003	1.5068315E-004	1.8545395E-003	4.6604757E+000	6.467831797070018E-008
5.0144413E+001	5.3957520E+002	4.3558807E+001	5.4133057E+002	-4.6153626E+000	5.817116078964318E+001	3.3131645E+000	-1.2567025E-004	7.2865440E+001	4.7178969E-001	1.000000000000000E+000	12	1.3304867E-001	2.4578083E-004	-4.543585029322357E-006	8.2845378E-005	1.8413099E-003	1.4864519E-004	1.8473001E-003	4.6153626E+000	6.558368401278464E-008
4.4671219E+001	5.4175171E+002	4.3591705E+001	5.4350269E+002	-4.6003571E+000	5.893524050593260E+001	3.3131654E+000	-8.9444919E-005	8.1731308E+001	5.2576637E-001	1.000000000000000E+000	12	1.3304788E-001	2.4479709E-004	-4.689217782361084E-006	2.6785929E-006	1.8339898E-003	1.4757081E-004	1.8399173E-003	4.6003571E+000	-1.456327530387268E-007
3.9808922E+001	5.4402014E+002	4.3841908E+001	5.4578387E+002	-4.6074386E+000	5.969769907551381E+001	3.3131654E+000	-1.2882108E-004	9.1190643E+001	5.8842045E-001	1.000000000000000E+000	12	1.3304460E-001	2.4376792E-004	-4.478163706900280E-006	-7.7488192E-005	1.8263062E-003	1.4717974E-004	1.8322271E-003	4.6074386E+000	2.110540754608036E-007
3.5465305E+001	5.4629443E+002	4.4269928E+001	5.4808527E+002	-4.6329398E+000	6.044812759113847E+001	3.3131680E+000	-5.6053112E-005	1.0136958E+002	6.6134638E-001	1.000000000000000E+000	12	1.3304244E-001	2.4274040E-004	-4.927285119032603E-006	-7.7488192E-005	1.8185722E-003	1.4737117E-004	1.8245337E-003	4.6329398E+000	-4.491214121323233E-007
3.1629551E+001	5.4861829E+002	4.4933189E+001	5.5045526E+002	-4.6822152E+000	6.117244181220303E+001	3.3131599E+000	-8.6703512E-005	1.1198499E+002	7.4619150E-001	1.000000000000000E+000	12	1.3304295E-001	2.4169621E-004	-4.903984616997251E-006	-3.1798857E-004	1.8106154E-003	1.4829388E-004	1.8166781E-003	4.6822152E+000	2.330050203535237E-008
2.8170074E+001	5.5098389E+002	4.5815521E+001	5.5288544E+002	-4.7533350E+000	6.197775531712978E+001	3.3131640E+000	-1.0130168E-004	1.2331602E+002	8.4678751E-001	1.000000000000000E+000	12	1.3303871E-001	2.4062618E-004	-4.265991277483812E-006	2.6785929E-006	1.8024723E-003	1.4987953E-004	1.8086929E-003	4.7533350E+000	6.379933395134385E-007
2.5104435E+001	5.5348651E+002	4.6905880E+001	5.5547052E+002	-4.8440251E+000	6.273390284637571E+001	3.3131676E+000	-8.9238900E-005	1.3515820E+002	9.6377343E-001	1.000000000000000E+000	12	1.3303758E-001	2.3950431E-004	-4.142153593537336E-006	8.2845378E-005	1.7938454E-003	1.5202157E-004	1.8002755E-003	4.8440251E+000	1.238376839464763E-007
2.2385387E+001	5.5608350E+002	4.8212551E+001	5.5816962E+002	-4.9551644E+000	6.342044061227352E+001	3.3131614E+000	-5.8364309E-005	1.4746719E+002	1.1002294E+000	1.000000000000000E+000	12	1.3304129E-001	2.3835280E-004	-4.915022294189839E-006	1.6301216E-004	1.7848742E-003	1.5474895E-004	1.7915701E-003	4.9551644E+000	-7.728687006525027E-007
1.9955299E+001	5.5870636E+002	4.9664841E+001	5.6090942E+002	-5.0798168E+000	6.418221416845336E+001	3.3131595E+000	-1.1440823E-004	1.6058791E+002	1.2589992E+000	1.000000000000000E+000	12	1.3304147E-001	2.3718887E-004	-4.831425412071338E-006	2.4317895E-004	1.7758167E-003	1.5785691E-004	1.7828190E-003	5.0798168E+000	8.359688211850060E-008
1.7796129E+001	5.6148376E+002	5.1362507E+001	5.6382813E+002	-5.2266645E+000	6.502651423521456E+001	3.3131640E+000	-1.2557615E-004	1.7411989E+002	1.4449317E+000	1.000000000000000E+000	12	1.3303626E-001	2.3595178E-004	-4.983298825410505E-006	1.6301216E-004	1.7662157E-003	1.6156703E-004	1.7735901E-003	5.2266645E+000	-1.518734133391666E-007
1.5857576E+001	5.6441595E+002	5.3287544E+001	5.6692584E+002	-5.3934126E+000	6.574890992289875E+001	3.3131621E+000	-7.6225268E-005	1.8834651E+002	1.6640122E+000	1.000000000000000E+000	12	1.3303499E-001	2.3466030E-004	-4.395328440986405E-006	2.4317895E-004	1.7560900E-003	1.6579567E-004	1.7638991E-003	5.3934126E+000	5.879703844240995E-007
1.4118974E+001	5.6749139E+002	5.5390526E+001	5.7018823E+002	-5.5747490E+000	6.655125918766134E+001	3.3131728E+000	-3.7222151E-005	2.0350801E+002	1.9205074E+000	1.000000000000000E+000	12	1.3303323E-001	2.3331458E-004	-5.400477560001390E-006	4.8367929E-004	1.7455119E-003	1.7037231E-004	1.7538068E-003	5.5747490E+000	-1.005149119014985E-006
1.2600808E+001	5.7069000E+002	5.7696976E+001	5.7359918E+002	-5.7730093E+000	6.744185389665654E+001	3.3131657E+000	-1.4280330E-004	2.1891156E+002	2.2149184E+000	1.000000000000000E+000	12	1.3303906E-001	2.3193733E-004	-4.998370667382712E-006	-7.7488192E-005	1.7345356E-003	1.7536221E-004	1.7433777E-003	5.7730093E+000	4.021068926186779E-007
1.1224856E+001	5.7411438E+002	6.0230751E+001	5.7726514E+002	-5.9890332E+000	6.812591448915191E+001	3.3131540E+000	-1.1289824E-004	2.3540790E+002	2.5627542E+000	1.000000000000000E+000	12	1.3303468E-001	2.3045680E-004	-5.521029797057660E-006	8.2845378E-005	1.7228511E-003	1.8074554E-004	1.7323062E-003	5.9890332E+000	-5.226591296749476E-007
1.0003201E+001	5.7768848E+002	6.2975861E+001	5.8111096E+002	-6.2214479E+000	6.888667036529660E+001	3.3131657E+000	-9.8654389E-005	2.5264288E+002	2.9671338E+000	1.000000000000000E+000	12	1.3303855E-001	2.2893830E-004	-3.718911098527214E-006	3.2334571E-004	1.7107067E-003	1.8649020E-004	1.7208417E-003	6.2214479E+000	1.802118698530446E-006
8.9183798E+000	5.8148505E+002	6.5987946E+001	5.8521729E+002	-6.4743280E+000	6.973101352539379E+001	3.3131623E+000	-3.4481516E-005	2.7043915E+002	3.4384642E+000	1.000000000000000E+000	12	1.3303386E-001	2.2732386E-004	-5.889221974688149E-006	2.4317895E-004	1.6978693E-003	1.9267719E-004	1.7087670E-003	6.4743280E+000	-2.170310876160935E-006
7.9395342E+000	5.8551648E+002	6.9229698E+001	5.8959503E+002	-6.7431726E+000	7.066968322332104E+001	3.3131609E+000	-1.2978984E-004	2.8955606E+002	3.9921782E+000	1.000000000000000E+000	12	1.3303477E-001	2.2563753E-004	-3.552875606422781E-006	-3.1798857E-004	1.6843467E-003	1.9915205E-004	1.6960794E-003	6.7431726E+000	2.336346368265367E-006
7.0765405E+000	5.8960931E+002	7.2610313E+001	5.9406348E+002	-7.0206189E+000	7.122803714315523E+001	3.3131425E+000	2.4172037E-005	3.0974252E+002	4.6273437E+000	1.000000000000000E+000	12	1.3303433E-001	2.2393960E-004	-3.549542374574634E-006	1.6301216E-004	1.6707006E-003	2.0574656E-004	1.6833218E-003	7.0206189E+000	3.333231848147204E-009
6.3105822E+000	5.9400800E+002	7.6146027E+001	5.9886871E+002	-7.3049197E+000	7.184818170589278E+001	3.3131506E+000	1.8003628E-004	3.3120999E+002	5.3546944E+000	1.000000000000000E+000	12	1.3304342E-001	2.2215791E-004	-4.039806621517022E-006	-2.3782176E-004	1.6562621E-003	2.1231661E-004	1.6698150E-003	7.3049197E+000	-4.902642469423880E-007
5.6205034E+000	5.9871729E+002	8.0266609E+001	6.0407379E+002	-7.6357884E+000	7.253465472523749E+001	3.3131604E+000	1.7612148E-004	3.5278491E+002	6.2287350E+000	1.000000000000000E+000	12	1.3303223E-001	2.2022513E-004	-5.534241452445308E-006	2.4317895E-004	1.6407478E-003	2.1996569E-004	1.6554269E-003	7.6357884E+000	-1.494434830928286E-006
5.0144415E+000	6.0386987E+002	8.4258743E+001	6.0971991E+002	-7.9432702E+000	7.329216110784910E+001	3.3131804E+000	1.5920200E-007	3.7668869E+002	7.1936913E+000	1.000000000000000E+000	12	1.3302407E-001	2.1817243E-004	-7.221300278877000E-006	4.8367929E-004	1.6243613E-003	2.2664924E-004	1.6400974E-003	7.9432702E+000	-1.687058826431692E-006
4.4693937E+000	6.0893982E+002	8.8469078E+001	6.1533282E+002	-8.2663107E+000	7.413353320115129E+001	3.3131614E+000	-1.9948135E-004	4.0251309E+002	8.3203735E+000	1.000000000000000E+000	12	1.3303700E-001	2.1620332E-004	-5.703286557737253E-006	-3.1798857E-004	1.6082524E-003	2.3365299E-004	1.6251368E-003	8.2663107E+000	1.518013721139748E-006
3.9778514E+000	6.1477234E+002	9.3349716E+001	6.2181927E+002	-8.6340866E+000	7.507017260559951E+001	3.3131537E+000	-1.2086916E-004	4.2860629E+002	9.6595345E+000	1.000000000000000E+000	12	1.3303460E-001	2.1394416E-004	-2.666085004957090E-006	2.4317895E-004	1.5899591E-003	2.4142634E-004	1.6081843E-003	8.6340866E+000	3.037201552780162E-006
3.5511365E+000	6.2049817E+002	9.7935661E+001	6.2817938E+002	-8.9692278E+000	7.611141372172278E+001	3.3131683E+000	1.5917383E-004	4.5762726E+002	1.1123111E+001	1.000000000000000E+000	12	1.3303465E-001	2.1177811E-004	-5.635502673359750E-006	2.6785929E-006	1.5724365E-003	2.4818385E-004	1.5919020E-003	8.9692278E+000	-2.969417668402659E-006
3.1603966E+000	6.2708929E+002	1.0325648E+002	6.3553357E+002	-9.3504152E+000	7.727421660363325E+001	3.3131731E+000	-1.3423124E-005	4.8770953E+002	1.2874159E+001	1.000000000000000E+000	12	1.3303460E-001	2.0932742E-004	-7.666257385866226E-006	-7.7488192E-005	1.5525743E-003	2.5564677E-004	1.5734810E-003	9.3504152E+000	-2.030754712506476E-006
2.8183618E+000	6.3350574E+002	1.0868404E+002	6.4276105E+002	-9.7348757E+000	7.856969999855210E+001	3.3131745E+000	-9.2098468E-005	5.1958618E+002	1.4855596E+001	1.000000000000000E+000	12	1.3303488E-001	2.0697410E-004	-2.004452514197005E-006	1.6301216E-004	1.5333858E-003	2.6306720E-004	1.5557881E-003	9.7348757E+000	5.661804871669221E-006
2.5136740E+000	6.4052814E+002	1.1407286E+002	6.5060657E+002	-1.0098042E+001	8.001372124046611E+001	3.3131816E+000	1.4625890E-004	5.5504584E+002	1.7063049E+001	1.000000000000000E+000	12	1.3303317E-001	2.0447561E-004	-6.501574435477475E-006	4.0351250E-004	1.5132173E-003	2.6949172E-004	1.5370272E-003	1.0098042E+001	-4.497121921280471E-006
2.2398219E+000	6.4815863E+002	1.1999137E+002	6.5917188E+002	-1.0488229E+001	8.162833369043074E+001	3.3131785E+000	-9.6338081E-005	5.9218390E+002	1.9622725E+001	1.000000000000000E+000	12	1.3303293E-001	2.0181829E-004	-6.677453114150719E-006	2.4317895E-004	1.4917086E-003	2.7615484E-004	1.5170550E-003	1.0488229E+001	-1.758786786732441E-007
1.9970604E+000	6.5598956E+002	1.2644859E+002	6.6806555E+002	-1.0910519E+001	8.343172190948098E+001	3.3131788E+000	-2.1244596E-005	6.3025299E+002	2.2579000E+001	1.000000000000000E+000	12	1.3303292E-001	1.9913154E-004	-1.109929170989037E-006	8.2845378E-005	1.4698019E-003	2.8331907E-004	1.4968591E-003	1.0910519E+001	5.567523943161682E-006
1.7796129E+000	6.6413757E+002	1.3285071E+002	6.7729462E+002	-1.1311856E+001	8.544987677864265E+001	3.3131783E+000	1.3998731E-004	6.7317920E+002	2.5900206E+001	1.000000000000000E+000	12	1.3303101E-001	1.9641528E-004	-1.005615180568374E-005	3.2334571E-004	1.4477808E-003	2.8960669E-004	1.4764623E-003	1.1311856E+001	-8.946222634694701E-006
1.5846854E+000	6.7301556E+002	1.3954797E+002	6.8733075E+002	-1.1714135E+001	8.770904413927929E+001	3.3131790E+000	-6.1901723E-005	7.1970337E+002	2.9666689E+001	1.000000000000000E+000	12	1.3303471E-001	1.9355268E-004	-4.407515858110855E-007	4.0351250E-004	1.4246020E-003	2.9538744E-004	1.4549036E-003	1.1714135E+001	9.615400219872653E-006
1.4122382E+000	6.8238873E+002	1.4655528E+002	6.9794904E+002	-1.2121176E+001	9.023823540608282E+001	3.3131843E+000	1.5917303E-004	7.6897229E+002	3.3905193E+001	1.000000000000000E+000	12	1.3303384E-001	1.9060681E-004	-7.898295916923316E-006	2.4317895E-004	1.4008267E-003	3.0085279E-004	1.4327693E-003	1.2121176E+001	-7.457544331112230E-006
1.2596743E+000	6.9222382E+002	1.5396902E+002	7.0914050E+002	-1.2539968E+001	9.306690426045679E+001	3.3131855E+000	6.0087086E-007	8.2059430E+002	3.8683933E+001	1.000000000000000E+000	12	1.3303626E-001	1.8760211E-004	-4.370245327658065E-006	1.6301216E-004	1.3765182E-003	3.0617430E-004	1.4101578E-003	1.2539968E+001	3.528050589265251E-006
1.1224856E+000	7.0256323E+002	1.6170578E+002	7.2093262E+002	-1.2961768E+001	9.623514779758989E+001	3.3131812E+000	1.0648785E-004	8.7682672E+002	4.4113907E+001	1.000000000000000E+000	12	1.3303365E-001	1.8452993E-004	-2.744950228544541E-006	5.6384609E-004	1.3517489E-003	3.1112594E-004	1.3870922E-003	1.2961768E+001	1.625295099113524E-006
1.0000638E+000	7.1344446E+002	1.6991733E+002	7.3339954E+002	-1.3396267E+001	9.978315828609630E+001	3.3131797E+000	8.2307321E-005	9.3660126E+002	5.0274624E+001	1.000000000000000E+000	12	1.3303447E-001	1.8139427E-004	-9.547957676981847E-006	8.2845378E-005	1.3264135E-003	3.1590494E-004	1.3635133E-003	1.3396267E+001	-6.803007448437306E-006