EC-Lab ASCII FILE
Nb header lines : 60                          

Potentio Electrochemical Impedance Spectroscopy

Run on channel : 1 (SN 20909)
User : 
CE vs. WE compliance from -10 V to 10 V
Electrode connection : standard
Ewe ctrl range : min = -10.00 V, max = 10.00 V
Acquisition started on : 12/03/2020 16:54:43
Technique started on : 12/03/2020 16:54:44
Saved on :
	File : DE_206_1_30.mpr
	Directory : P:\Chemistry\Data\VMP3\Kyler\DOE\DE_206\
	Host : 10.0.4.64
Device : VMP3 (SN 1432)
Address : USB
EC-Lab for windows v11.33 (software)
Internet server v11.32 (firmware)
Command interpretor v11.33 (firmware)
Electrode material : 
Initial state : 
Electrolyte : 
Comments : 
Electrode surface area : 0.001 cm�
Characteristic mass : 0.001 g
Equivalent Weight : 0.000 g/eq.
Density : 0.000 g/cm3
Record Analogic IN 1
Cycle Definition : Charge/Discharge alternance
Mode                Single sine         
E (V)               0.0000              
vs.                 Eoc                 
tE (h:m:s)          0:00:0.0000         
record              0                   
dI                  1.000               
unit dI             mA                  
dt (s)              0.000               
fi                  1.000               
unit fi             MHz                 
ff                  1.000               
unit ff             Hz                  
Nd                  20                  
Points              per decade          
spacing             Logarithmic         
Va (mV)             128.0               
pw                  0.50                
Na                  3                   
corr                0                   
E range min (V)     -10.000             
E range max (V)     10.000              
I Range             Auto                
Bandwidth           5                   
nc cycles           0                   
goto Ns'            0                   
nr cycles           0                   
inc. cycle          1                   

freq/Hz	Re(Z)/Ohm	-Im(Z)/Ohm	|Z|/Ohm	Phase(Z)/deg	time/s	<Ewe>/V	<I>/mA	Cs/�F	Cp/�F	cycle number	I Range	|Ewe|/V	|I|/A	(Q-Qo)/mA.h	Analog IN 1/V	Re(Y)/Ohm-1	Im(Y)/Ohm-1	|Y|/Ohm-1	Phase(Y)/deg	dq/mA.h	
7.0794981E+005	1.2490702E+002	6.2654709E+001	1.3974039E+002	-2.6638838E+001	3.431481362931663E+000	3.3053558E+000	-1.4884652E-003	3.5880948E-003	7.2131917E-004	1.000000000000000E+000	11	1.7052977E-003	1.2203328E-005	-1.978173534472363E-006	4.2293142E-004	6.3965078E-003	3.2085576E-003	7.1561271E-003	2.6638838E+001	-3.475679978073458E-007
6.3095681E+005	1.3147314E+002	6.1914230E+001	1.4532227E+002	-2.5217003E+001	4.027495977905346E+000	3.3057733E+000	-1.0481994E-003	4.0740846E-003	7.3951448E-004	1.000000000000000E+000	11	8.7690772E-004	6.0342281E-006	-2.276009877179806E-006	2.1918953E-005	6.2254788E-003	2.9317448E-003	6.8812580E-003	2.5217003E+001	-2.978363427074430E-007
5.6234225E+005	1.3728973E+002	6.0737240E+001	1.5012489E+002	-2.3864689E+001	4.623480992886471E+000	3.3061018E+000	-7.6339836E-004	4.6597687E-003	7.6272688E-004	1.000000000000000E+000	11	1.1369232E-003	7.5731828E-006	-2.632664662615652E-006	-1.3848604E-004	6.0916175E-003	2.6949432E-003	6.6611203E-003	2.3864689E+001	-3.566547854358456E-007
5.0120619E+005	1.4303391E+002	6.0871639E+001	1.5544792E+002	-2.3053385E+001	5.220489287952660E+000	3.3064051E+000	-4.6814539E-004	5.2166143E-003	7.9992425E-004	1.000000000000000E+000	11	4.5579681E-003	2.9321511E-005	-2.968257755880081E-006	-1.3848604E-004	5.9192842E-003	2.5190986E-003	6.4330227E-003	2.3053385E+001	-3.355930932644289E-007
4.4668572E+005	1.4838107E+002	6.0543102E+001	1.6025732E+002	-2.2196659E+001	5.815478089527460E+000	3.3066392E+000	-3.5205926E-004	5.8850935E-003	8.3993742E-004	1.000000000000000E+000	11	9.4740652E-003	5.9117829E-005	-3.234784245166035E-006	2.1918953E-005	5.7775374E-003	2.3573763E-003	6.2399646E-003	2.2196659E+001	-2.665264892859547E-007
3.9810347E+005	1.5385565E+002	5.9728382E+001	1.6504254E+002	-2.1216736E+001	6.411489851161605E+000	3.3068237E+000	-5.5873013E-005	6.6933483E-003	8.7662356E-004	1.000000000000000E+000	11	1.5947707E-002	9.6627853E-005	-3.155796623098063E-006	-5.8283542E-005	5.6483508E-003	2.1927492E-003	6.0590440E-003	2.1216736E+001	7.898762206797206E-008
3.5480997E+005	1.5886649E+002	5.8998287E+001	1.6946786E+002	-2.0373499E+001	7.007473639474483E+000	3.3069317E+000	-1.2362076E-004	7.6029985E-003	9.2148659E-004	1.000000000000000E+000	11	2.3876442E-002	1.4089067E-004	-3.065984463749272E-006	-3.7909354E-004	5.5316864E-003	2.0543039E-003	5.9008235E-003	2.0373499E+001	8.981215934879094E-008
3.1622997E+005	1.6375996E+002	5.8093819E+001	1.7375908E+002	-1.9532131E+001	7.602480814413866E+000	3.3070266E+000	1.8968914E-005	8.6633768E-003	9.6839381E-004	1.000000000000000E+000	11	3.3377886E-002	1.9209291E-004	-2.835038164366981E-006	-1.3848604E-004	5.4239128E-003	1.9241321E-003	5.7550948E-003	1.9532131E+001	2.309462993822915E-007
2.8183453E+005	1.6835631E+002	5.6983116E+001	1.7773836E+002	-1.8699282E+001	8.197489056008635E+000	3.3070726E+000	3.1067173E-006	9.9101383E-003	1.0186144E-003	1.000000000000000E+000	11	4.4311151E-002	2.4930551E-004	-3.085208077341021E-006	-1.3848604E-004	5.3292625E-003	1.8037813E-003	5.6262477E-003	1.8699282E+001	-2.501699129740399E-007
2.5118764E+005	1.7283731E+002	5.5960636E+001	1.8167093E+002	-1.7940727E+001	8.792494844266912E+000	3.3071027E+000	-1.3182657E-004	1.1322419E-002	1.0743199E-003	1.000000000000000E+000	11	5.6696799E-002	3.1208515E-004	-3.254138472402701E-006	-5.8283542E-005	5.2368077E-003	1.6955546E-003	5.5044582E-003	1.7940727E+001	-1.689303950616805E-007
2.2387173E+005	1.7707646E+002	5.4832516E+001	1.8537173E+002	-1.7205372E+001	9.388487245916622E+000	3.3071678E+000	9.1572634E-005	1.2965304E-002	1.1344152E-003	1.000000000000000E+000	11	7.0387557E-002	3.7971031E-004	-3.276466684614813E-006	1.0212145E-004	5.1531624E-003	1.5956997E-003	5.3945659E-003	1.7205372E+001	-2.232821221211149E-008
1.9954350E+005	1.8111783E+002	5.3647808E+001	1.8889615E+002	-1.6499495E+001	9.985473194246879E+000	3.3071973E+000	1.0575766E-004	1.4867247E-002	1.1991910E-003	1.000000000000000E+000	11	8.5454918E-002	4.5239102E-004	-4.304974119102958E-006	-4.5929602E-004	5.0759227E-003	1.5035081E-003	5.2939141E-003	1.6499495E+001	-1.028507434488145E-006
1.7783180E+005	1.8496449E+002	5.2542271E+001	1.9228249E+002	-1.5858088E+001	1.058149620922632E+001	3.3072338E+000	7.7950222E-005	1.7033422E-002	1.2718623E-003	1.000000000000000E+000	11	1.0168727E-001	5.2884314E-004	-4.139570922173637E-006	-2.9889104E-004	5.0027515E-003	1.4211155E-003	5.2006817E-003	1.5858088E+001	1.654031969293208E-007
1.5848613E+005	1.8869818E+002	5.1412609E+001	1.9557674E+002	-1.5240836E+001	1.104149193773628E+001	3.3072891E+000	2.2576850E-004	1.9532563E-002	1.3497836E-003	1.000000000000000E+000	11	1.1907288E-001	6.0882943E-004	-4.055342530359566E-006	-1.3848604E-004	4.9332520E-003	1.3441113E-003	5.1130825E-003	1.5240836E+001	8.422839181407081E-008
1.4125594E+005	1.9223665E+002	5.0391804E+001	1.9873163E+002	-1.4688696E+001	1.150049811953795E+001	3.3072212E+000	-1.7138159E-004	2.2359058E-002	1.4376042E-003	1.000000000000000E+000	11	1.3760167E-001	6.9239945E-004	-4.222564862057981E-006	1.8232394E-004	4.8674578E-003	1.2759273E-003	5.0319117E-003	1.4688696E+001	-1.672223316984147E-007
1.2590930E+005	1.9568362E+002	4.9409561E+001	2.0182513E+002	-1.4170826E+001	1.209747505458654E+001	3.3073475E+000	1.0837664E-004	2.5582992E-002	1.5332848E-003	1.000000000000000E+000	11	1.3038887E-001	6.4604875E-004	-5.690399704017384E-006	-5.8283542E-005	4.8040110E-003	1.2129992E-003	4.9547842E-003	1.4170826E+001	-1.467834841959403E-006
1.1220494E+005	1.9894720E+002	4.8461105E+001	2.0476442E+002	-1.3689942E+001	1.269348948288825E+001	3.3074481E+000	3.0695146E-004	2.9269468E-002	1.6394284E-003	1.000000000000000E+000	11	1.3008210E-001	6.3527690E-004	-4.524941014144234E-006	5.0313392E-004	4.7449195E-003	1.1558043E-003	4.8836609E-003	1.3689942E+001	1.165458689873150E-006
1.0000371E+005	2.0214740E+002	4.7673660E+001	2.0769292E+002	-1.3269942E+001	1.328949391117203E+001	3.3073967E+000	2.8496630E-005	3.3383012E-002	1.7588917E-003	1.000000000000000E+000	11	1.2990265E-001	6.2545534E-004	-5.472091380516455E-006	-2.9889104E-004	4.6862429E-003	1.1051854E-003	4.8148008E-003	1.3269942E+001	-9.471503663722208E-007
8.9129305E+004	2.0522366E+002	4.6928055E+001	2.1052077E+002	-1.2880252E+001	1.388548404615722E+001	3.3074329E+000	3.6892976E-005	3.8051087E-002	1.8907855E-003	1.000000000000000E+000	11	1.2965593E-001	6.1588187E-004	-5.471336847543070E-006	2.1918953E-005	4.6306029E-003	1.0588700E-003	4.7501251E-003	1.2880252E+001	7.545329733847251E-010
7.9433273E+004	2.0820229E+002	4.6269962E+001	2.1328174E+002	-1.2529539E+001	1.448147490111296E+001	3.3074918E+000	2.5226438E-004	4.3303054E-002	2.0380248E-003	1.000000000000000E+000	11	1.2963440E-001	6.0780824E-004	-5.172586066021015E-006	-1.3848604E-004	4.5769708E-003	1.0171660E-003	4.6886341E-003	1.2529539E+001	2.987507815220549E-007
7.0794977E+004	2.1110440E+002	4.5739544E+001	2.1600272E+002	-1.2225189E+001	1.507747818276403E+001	3.3074541E+000	-1.0494934E-004	4.9150262E-002	2.2038959E-003	1.000000000000000E+000	11	1.2950304E-001	5.9954356E-004	-6.584635304102752E-006	-5.8283542E-005	4.5245863E-003	9.8033249E-004	4.6295715E-003	1.2225189E+001	-1.412049238081736E-006
6.3093828E+004	2.1391203E+002	4.5333221E+001	2.1866289E+002	-1.1965352E+001	1.567347845106269E+001	3.3074956E+000	3.9130093E-005	5.5643786E-002	2.3916613E-003	1.000000000000000E+000	11	1.2932977E-001	5.9145736E-004	-6.287555088288274E-006	5.8333640E-004	4.4738874E-003	9.4812678E-004	4.5732497E-003	1.1965352E+001	2.970802158144781E-007
5.6237012E+004	2.1662132E+002	4.5071217E+001	2.2126051E+002	-1.1753528E+001	1.613348932625377E+001	3.3074868E+000	1.8417242E-005	6.2791176E-002	2.6054897E-003	1.000000000000000E+000	11	1.4034754E-001	6.3430902E-004	-6.019415009181507E-006	2.1918953E-005	4.4247974E-003	9.2064345E-004	4.5195594E-003	1.1753528E+001	2.681400791067671E-007
5.0122477E+004	2.1940489E+002	4.4913544E+001	2.2395476E+002	-1.1568971E+001	1.672847564789117E+001	3.3075063E+000	6.7871209E-005	7.0698515E-002	2.8434417E-003	1.000000000000000E+000	11	1.3035327E-001	5.8205181E-004	-6.327908425815016E-006	2.6252642E-004	4.3744729E-003	8.9548167E-004	4.4651874E-003	1.1568971E+001	-3.084934166335090E-007
4.4666715E+004	2.2203894E+002	4.4898525E+001	2.2653293E+002	-1.1431642E+001	1.718749830967863E+001	3.3074985E+000	1.7108741E-005	7.9360433E-002	3.1174931E-003	1.000000000000000E+000	11	1.3934413E-001	6.1511644E-004	-6.893551447199166E-006	-5.8283542E-005	4.3267966E-003	8.7492209E-004	4.4143694E-003	1.1431642E+001	-5.656430213841509E-007
3.9814063E+004	2.2469281E+002	4.5056053E+001	2.2916568E+002	-1.1338737E+001	1.778348431133782E+001	3.3075190E+000	-7.1916358E-005	8.8721834E-002	3.4295539E-003	1.000000000000000E+000	11	1.3000588E-001	5.6730083E-004	-6.513604508185785E-006	1.8232394E-004	4.2784852E-003	8.5793418E-004	4.3636551E-003	1.1338737E+001	3.799469390133811E-007
3.5480996E+004	2.2732858E+002	4.5350857E+001	2.3180807E+002	-1.1282095E+001	1.824248155977693E+001	3.3075280E+000	7.2351591E-005	9.8909684E-002	3.7857566E-003	1.000000000000000E+000	11	1.3687977E-001	5.9048750E-004	-5.983543746121642E-006	1.8232394E-004	4.2305510E-003	8.4397272E-004	4.3139136E-003	1.1282095E+001	5.300607620641432E-007
3.1621143E+004	2.3001852E+002	4.5818901E+001	2.3453761E+002	-1.1265663E+001	1.883949689482688E+001	3.3075471E+000	1.0501104E-004	1.0984945E-001	4.1923956E-003	1.000000000000000E+000	11	1.2950736E-001	5.5218162E-004	-5.279894897843607E-006	-1.3848604E-004	4.1815550E-003	8.3295139E-004	4.2637084E-003	1.1265663E+001	7.036488482780348E-007
2.8188096E+004	2.3267290E+002	4.6452015E+001	2.3726456E+002	-1.1290381E+001	1.929948648999562E+001	3.3075297E+000	2.5879212E-005	1.2154856E-001	4.6590054E-003	1.000000000000000E+000	11	1.3439593E-001	5.6643912E-004	-5.618583907192159E-006	-2.9889104E-004	4.1331397E-003	8.2516123E-004	4.2147045E-003	1.1290381E+001	-3.386890093485516E-007
2.5116910E+004	2.3539055E+002	4.7245224E+001	2.4008504E+002	-1.1349039E+001	1.975947440517484E+001	3.3075337E+000	1.4305027E-006	1.3412076E-001	5.1937569E-003	1.000000000000000E+000	11	1.3864857E-001	5.7749776E-004	-5.218811644128033E-006	-5.3949852E-004	4.0837470E-003	8.1964862E-004	4.1651907E-003	1.1349039E+001	3.997722630641262E-007
2.2389027E+004	2.3816119E+002	4.8211239E+001	2.4299193E+002	-1.1443806E+001	2.035448350009392E+001	3.3075461E+000	6.3578482E-005	1.4744723E-001	5.8042952E-003	1.000000000000000E+000	11	1.2938100E-001	5.3244981E-004	-5.620254556920069E-006	-5.8283542E-005	4.0335488E-003	8.1651582E-004	4.1153631E-003	1.1443806E+001	-4.014429127920367E-007
1.9948783E+004	2.4101736E+002	4.9356434E+001	2.4601917E+002	-1.1573234E+001	2.081447480196948E+001	3.3075554E+000	-3.4403827E-005	1.6164415E-001	6.5059336E-003	1.000000000000000E+000	11	1.3211739E-001	5.3702074E-004	-5.975740114527677E-006	1.8232394E-004	3.9820843E-003	8.1546605E-004	4.0647238E-003	1.1573234E+001	-3.554855576076075E-007
1.7786895E+004	2.4394839E+002	5.0674229E+001	2.4915598E+002	-1.1734890E+001	2.127449634377263E+001	3.3075600E+000	-5.4757184E-006	1.7657650E-001	7.3040635E-003	1.000000000000000E+000	11	1.3434720E-001	5.3920923E-004	-6.451963750338311E-006	-2.1868854E-004	3.9296634E-003	8.1629003E-004	4.0135500E-003	1.1734890E+001	-4.762236358106343E-007
1.5847686E+004	2.4699199E+002	5.2130295E+001	2.5243338E+002	-1.1917972E+001	2.173449063228327E+001	3.3075573E+000	-3.4589775E-005	1.9264781E-001	8.2158195E-003	1.000000000000000E+000	11	1.3616969E-001	5.3942821E-004	-6.202931839775475E-006	-5.3949852E-004	3.8760493E-003	8.1808155E-004	3.9614411E-003	1.1917972E+001	2.490319105628360E-007
1.4121879E+004	2.5016418E+002	5.3811245E+001	2.5588625E+002	-1.2139560E+001	2.219349489410524E+001	3.3075538E+000	2.0839532E-005	2.0943756E-001	9.2620431E-003	1.000000000000000E+000	11	1.3763447E-001	5.3787365E-004	-5.843569863218970E-006	1.0212145E-004	3.8205972E-003	8.2182465E-004	3.9079865E-003	1.2139560E+001	3.593619765565053E-007
1.2590932E+004	2.5346915E+002	5.5638763E+001	2.5950391E+002	-1.2380584E+001	2.265348603596794E+001	3.3075459E+000	-6.6877248E-005	2.2718768E-001	1.0443641E-002	1.000000000000000E+000	11	1.3877238E-001	5.3476030E-004	-5.848814123251941E-006	-2.9889104E-004	3.7638934E-003	8.2620856E-004	3.8535066E-003	1.2380584E+001	-5.244260032971188E-009
1.1217711E+004	2.5695770E+002	5.7662815E+001	2.6334818E+002	-1.2647978E+001	2.311347947115428E+001	3.3075478E+000	-3.4030385E-005	2.4604812E-001	1.1796445E-002	1.000000000000000E+000	11	1.3967502E-001	5.3038157E-004	-6.268010445618226E-006	-5.8283542E-005	3.7051092E-003	8.3144818E-004	3.7972543E-003	1.2647978E+001	-4.191963223662852E-007
1.0002229E+004	2.6061920E+002	5.9808022E+001	2.6739365E+002	-1.2924701E+001	2.357248354624608E+001	3.3075421E+000	-4.8027228E-005	2.6605037E-001	1.3310078E-002	1.000000000000000E+000	11	1.4036779E-001	5.2494812E-004	-6.637039778081493E-006	-5.8283542E-005	3.6450562E-003	8.3648332E-004	3.7398047E-003	1.2924701E+001	-3.690293324632672E-007
8.9149297E+003	2.6445328E+002	6.2154976E+001	2.7165930E+002	-1.3226288E+001	2.419692096262588E+001	3.3075705E+000	-4.0002484E-005	2.8722769E-001	1.5035884E-002	1.000000000000000E+000	11	1.2928915E-001	4.7592388E-004	-6.120642894791672E-006	-5.3949852E-004	3.5834371E-003	8.4222230E-004	3.6810813E-003	1.3226288E+001	5.163968832898213E-007
7.9439976E+003	2.6854953E+002	6.4653633E+001	2.7622263E+002	-1.3536425E+001	2.472298130762647E+001	3.3075802E+000	-1.6300428E-005	3.0987611E-001	1.6976785E-002	1.000000000000000E+000	11	1.2963912E-001	4.6932837E-004	-6.617268200132660E-006	3.4272892E-004	3.5197020E-003	8.4737258E-004	3.6202683E-003	1.3536425E+001	-4.966253053409878E-007
7.0822334E+003	2.7289200E+002	6.7287025E+001	2.8106509E+002	-1.3851139E+001	2.529988570834394E+001	3.3075979E+000	-6.0359189E-006	3.3397853E-001	1.9141123E-002	1.000000000000000E+000	11	1.2989962E-001	4.6216918E-004	-6.533987244015508E-006	2.6252642E-004	3.4544345E-003	8.5176050E-004	3.5578946E-003	1.3851139E+001	8.328095611715192E-008
6.3077344E+003	2.7755182E+002	7.0076073E+001	2.8626154E+002	-1.4169859E+001	2.593454285847838E+001	3.3076031E+000	-1.6504595E-004	3.6006173E-001	2.1576973E-002	1.000000000000000E+000	11	1.3010032E-001	4.5448064E-004	-6.457408381878243E-006	5.0313392E-004	3.3870225E-003	8.5515284E-004	3.4933090E-003	1.4169859E+001	7.657886213726509E-008
5.6210552E+003	2.8241772E+002	7.2961449E+001	2.9169016E+002	-1.4485405E+001	2.663528614505776E+001	3.3076103E+000	-9.2073300E-005	3.8806888E-001	2.4280194E-002	1.000000000000000E+000	11	1.3023369E-001	4.4647953E-004	-6.816290983035489E-006	4.2293142E-004	3.3193144E-003	8.5753109E-004	3.4282953E-003	1.4485405E+001	-3.588826011572465E-007
5.0116035E+003	2.8764764E+002	7.5966286E+001	2.9750974E+002	-1.4793763E+001	2.739569522124657E+001	3.3076055E+000	-1.6952534E-004	4.1804451E-001	2.7255990E-002	1.000000000000000E+000	11	1.3031986E-001	4.3803561E-004	-6.897106506997564E-006	-2.9889104E-004	3.2498136E-003	8.5825933E-004	3.3612344E-003	1.4793763E+001	-8.081552396207507E-008
4.4664292E+003	2.9319876E+002	7.9013786E+001	3.0365884E+002	-1.5082273E+001	2.815567029734666E+001	3.3075986E+000	-2.0088025E-004	4.5097947E-001	3.0534491E-002	1.000000000000000E+000	11	1.3038647E-001	4.2938473E-004	-7.199933980302173E-006	2.6252642E-004	3.1797301E-003	8.5690175E-004	3.2931694E-003	1.5082273E+001	-3.028274733046090E-007
3.9812742E+003	2.9908313E+002	8.2169205E+001	3.1016528E+002	-1.5362241E+001	2.891569870677631E+001	3.3075743E+000	-2.9121005E-004	4.8650685E-001	3.4144498E-002	1.000000000000000E+000	11	1.3041991E-001	4.2048519E-004	-6.882062981399940E-006	-1.3848604E-004	3.1088914E-003	8.5412752E-004	3.2240874E-003	1.5362241E+001	3.178709989022332E-007
3.5465955E+003	3.0542685E+002	8.5302620E+001	3.1711526E+002	-1.5604509E+001	2.967594727620599E+001	3.3076029E+000	-1.5384878E-004	5.2607316E-001	3.8065940E-002	1.000000000000000E+000	11	1.3043638E-001	4.1132164E-004	-6.747324275250624E-006	6.6353887E-004	3.0371966E-003	8.4825821E-004	3.1534275E-003	1.5604509E+001	1.347387061493160E-007
3.1610112E+003	3.1213080E+002	8.8411255E+001	3.2441052E+002	-1.5814810E+001	3.043570624564018E+001	3.3076050E+000	-1.3667931E-004	5.6949061E-001	4.2297218E-002	1.000000000000000E+000	11	1.3044466E-001	4.0209750E-004	-6.585010172100737E-006	-5.8283542E-005	2.9658335E-003	8.4007432E-004	3.0825140E-003	1.5814810E+001	1.623141031498869E-007
2.8172952E+003	3.1927502E+002	9.1456459E+001	3.3211569E+002	-1.5984381E+001	3.119594161506393E+001	3.3075993E+000	-1.9565564E-004	6.1769402E-001	4.6840698E-002	1.000000000000000E+000	11	1.3043424E-001	3.9273736E-004	-6.321911209367196E-006	1.0212145E-004	2.8945841E-003	8.2915474E-004	3.0109989E-003	1.5984381E+001	2.630989627335410E-007
2.5108032E+003	3.2682040E+002	9.4396690E+001	3.4017981E+002	-1.6110493E+001	3.195570621117076E+001	3.3075993E+000	-2.0909317E-004	6.7150724E-001	5.1706739E-002	1.000000000000000E+000	11	1.3042566E-001	3.8340213E-004	-6.383622820246577E-006	-2.9889104E-004	2.8241782E-003	8.1571745E-004	2.9396219E-003	1.6110493E+001	-6.171161087938045E-008
2.2378516E+003	3.3475861E+002	9.7116203E+001	3.4856116E+002	-1.6177876E+001	3.271592638059519E+001	3.3076034E+000	-2.3466136E-004	7.3231369E-001	5.6848966E-002	1.000000000000000E+000	11	1.3040125E-001	3.7411298E-004	-6.751199508946027E-006	-5.8283542E-005	2.7553311E-003	7.9934404E-004	2.8689371E-003	1.6177876E+001	-3.675766886994500E-007
1.9956389E+003	3.4312216E+002	9.9656937E+001	3.5730145E+002	-1.6195494E+001	3.372669722862338E+001	3.3075976E+000	-3.6262110E-005	8.0025917E-001	6.2255275E-002	1.000000000000000E+000	12	1.3262361E-001	3.7118129E-004	-6.782249571787866E-006	2.6252642E-004	2.6876901E-003	7.8061695E-004	2.7987571E-003	1.6195494E+001	-3.105006284183970E-008
1.7782927E+003	3.5189484E+002	1.0186343E+002	3.6634155E+002	-1.6144209E+001	3.448697158470168E+001	3.3075976E+000	-9.1694244E-005	8.7861484E-001	6.7930192E-002	1.000000000000000E+000	12	1.3240674E-001	3.6142976E-004	-6.959466408301119E-006	2.1918953E-005	2.6220472E-003	7.5900723E-004	2.7296930E-003	1.6144209E+001	-1.772168365132523E-007
1.5855076E+003	3.6097537E+002	1.0367462E+002	3.7556842E+002	-1.6024431E+001	3.524669580748741E+001	3.3075950E+000	-4.9140712E-005	9.6823174E-001	7.3781267E-002	1.000000000000000E+000	12	1.3217793E-001	3.5194101E-004	-7.288858845509822E-006	-2.9889104E-004	2.5591718E-003	7.3501182E-004	2.6626308E-003	1.6024431E+001	-3.293924372087032E-007
1.4118373E+003	3.7044199E+002	1.0507278E+002	3.8505527E+002	-1.5835546E+001	3.600821877692943E+001	3.3076005E+000	-4.7237303E-005	1.0728655E+000	7.9887643E-002	1.000000000000000E+000	12	1.3195577E-001	3.4269306E-004	-7.444957330502803E-006	2.6252642E-004	2.4984695E-003	7.0867006E-004	2.5970298E-003	1.5835546E+001	-1.560984849929810E-007
1.2587914E+003	3.8004224E+002	1.0595041E+002	3.9453464E+002	-1.5577720E+001	3.676795753304032E+001	3.3075976E+000	-1.0154946E-004	1.1933388E+000	8.6059481E-002	1.000000000000000E+000	12	1.3173579E-001	3.3390170E-004	-7.769217435912448E-006	-2.9889104E-004	2.4415271E-003	6.8066333E-004	2.5346316E-003	1.5577720E+001	-3.242601054096455E-007
1.1217948E+003	3.8984537E+002	1.0630756E+002	4.0408008E+002	-1.5253216E+001	3.752642071570153E+001	3.3076007E+000	-7.4617368E-005	1.3345737E+000	9.2371061E-002	1.000000000000000E+000	12	1.3152954E-001	3.2550364E-004	-7.559436510502969E-006	1.8232394E-004	2.3875777E-003	6.5107230E-004	2.4747569E-003	1.5253216E+001	2.097809254094797E-007
1.0003201E+003	3.9965961E+002	1.0606493E+002	4.1349435E+002	-1.4863006E+001	3.828568075182557E+001	3.3076046E+000	-6.3363077E-005	1.5000625E+000	9.8699242E-002	1.000000000000000E+000	12	1.3134554E-001	3.1764773E-004	-7.723064221561395E-006	-5.8283542E-005	2.3374972E-003	6.2034407E-004	2.4184126E-003	1.4863006E+001	-1.636277110584265E-007
8.9142657E+002	4.0949103E+002	1.0521130E+002	4.2279111E+002	-1.4409433E+001	3.904344996108557E+001	3.3076005E+000	-6.1814084E-005	1.6969622E+000	1.0508609E-001	1.000000000000000E+000	12	1.3116911E-001	3.1024567E-004	-7.979051998211717E-006	-6.1970105E-004	2.2908293E-003	5.8858702E-004	2.3652343E-003	1.4409433E+001	-2.559877766503217E-007
7.9423773E+002	4.1919904E+002	1.0378351E+002	4.3185513E+002	-1.3905438E+001	3.980296010387247E+001	3.3075981E+000	-1.4499959E-004	1.9308176E+000	1.1151205E-001	1.000000000000000E+000	12	1.3102371E-001	3.0339736E-004	-7.802124323698486E-006	-5.8283542E-005	2.2477298E-003	5.5648334E-004	2.3155913E-003	1.3905438E+001	1.769276745132310E-007
7.0750946E+002	4.2864130E+002	1.0179230E+002	4.4056216E+002	-1.3358952E+001	4.056544403338921E+001	3.3076000E+000	-6.3140098E-005	2.2099018E+000	1.1797457E-001	1.000000000000000E+000	12	1.3088775E-001	2.9709257E-004	-8.097698854292199E-006	2.6252642E-004	2.2084096E-003	5.2444567E-004	2.2698273E-003	1.3358952E+001	-2.955745305937133E-007
6.3100964E+002	4.3767630E+002	9.9293213E+001	4.4879803E+002	-1.2782022E+001	4.132345892270678E+001	3.3076038E+000	-7.2378723E-005	2.5401804E+000	1.2433740E-001	1.000000000000000E+000	12	1.3077651E-001	2.9139279E-004	-8.347549926195320E-006	1.8232394E-004	2.1729569E-003	4.9296673E-004	2.2281737E-003	1.2782022E+001	-2.498510719031209E-007
5.6233929E+002	4.4635751E+002	9.6334351E+001	4.5663480E+002	-1.2178960E+001	4.207990365201840E+001	3.3076026E+000	-7.0960174E-005	2.9379237E+000	1.3075697E-001	1.000000000000000E+000	12	1.3067466E-001	2.8616886E-004	-8.442503231134147E-006	-5.8283542E-005	2.1406459E-003	4.6200125E-004	2.1899338E-003	1.2178960E+001	-9.495330493882671E-008
5.0144415E+002	4.5448471E+002	9.3023460E+001	4.6390701E+002	-1.1567473E+001	4.283719040799770E+001	3.3076031E+000	-7.6466466E-005	3.4119689E+000	1.3719180E-001	1.000000000000000E+000	12	1.3059264E-001	2.8150607E-004	-8.580179946227064E-006	1.8232394E-004	2.1118224E-003	4.3224564E-004	2.1556043E-003	1.1567473E+001	-1.376767150929169E-007
4.4685895E+002	4.6212393E+002	8.9417297E+001	4.7069522E+002	-1.0950950E+001	4.359391428393428E+001	3.3076026E+000	-6.2244821E-005	3.9831634E+000	1.4374463E-001	1.000000000000000E+000	12	1.3051964E-001	2.7729120E-004	-8.546745585007658E-006	2.6252642E-004	2.0858299E-003	4.0359143E-004	2.1245170E-003	1.0950950E+001	3.343436121940609E-008
3.9808920E+002	4.6921457E+002	8.5593048E+001	4.7695752E+002	-1.0338094E+001	4.435669626685558E+001	3.3075948E+000	-5.8531041E-005	4.6709070E+000	1.5042458E-001	1.000000000000000E+000	12	1.3045940E-001	2.7352414E-004	-8.411856046694917E-006	2.1918953E-005	2.0625861E-003	3.7625220E-004	2.0966227E-003	1.0338094E+001	1.348895383127408E-007
3.5465955E+002	4.7580447E+002	8.1690338E+001	4.8276620E+002	-9.7420673E+000	4.511692952961312E+001	3.3075974E+000	-1.2592669E-004	5.4933562E+000	1.5729158E-001	1.000000000000000E+000	12	1.3040771E-001	2.7012601E-004	-8.558018450507208E-006	-1.3848604E-004	2.0415254E-003	3.5050724E-004	2.0713960E-003	9.7420673E+000	-1.461624038122915E-007
3.1631586E+002	4.8164032E+002	7.7804672E+001	4.8788419E+002	-9.1763468E+000	4.587391785890213E+001	3.3076043E+000	-6.7042005E-005	6.4668603E+000	1.6446419E-001	1.000000000000000E+000	12	1.3036674E-001	2.6720838E-004	-8.365977971392567E-006	1.0212145E-004	2.0234357E-003	3.2686786E-004	2.0496668E-003	9.1763468E+000	1.920404791146408E-007
2.8189429E+002	4.8706210E+002	7.3937492E+001	4.9264212E+002	-8.6317701E+000	4.662839704137878E+001	3.3076010E+000	-7.8893914E-005	7.6360564E+000	1.7200279E-001	1.000000000000000E+000	12	1.3032727E-001	2.6454756E-004	-8.674179651242513E-006	2.1918953E-005	2.0068793E-003	3.0465031E-004	2.0298711E-003	8.6317701E+000	-3.082016798499456E-007
2.5104436E+002	4.9200079E+002	7.0228096E+001	4.9698770E+002	-8.1235132E+000	4.738492963733734E+001	3.3075995E+000	-4.9013204E-005	9.0273180E+000	1.8025580E-001	1.000000000000000E+000	12	1.3029656E-001	2.6217260E-004	-8.372735426303633E-006	-1.3848604E-004	1.9919320E-003	2.8432798E-004	2.0121222E-003	8.1235132E+000	3.014442249388798E-007
2.2392513E+002	4.9645062E+002	6.6660583E+001	5.0090604E+002	-7.6476107E+000	4.814769356691249E+001	3.3075991E+000	-6.0808674E-005	1.0662234E+001	1.8883127E-001	1.000000000000000E+000	12	1.3027346E-001	2.6007564E-004	-8.118960884017725E-006	-5.8283542E-005	1.9786251E-003	2.6567859E-004	1.9963824E-003	7.6476107E+000	2.537745422859085E-007
1.9955299E+002	5.0046347E+002	6.3312889E+001	5.0445239E+002	-7.2101021E+000	4.890921240302850E+001	3.3075995E+000	-4.4328619E-005	1.2597075E+001	1.9843288E-001	1.000000000000000E+000	12	1.3025236E-001	2.5820546E-004	-8.102036206141444E-006	-5.8283542E-005	1.9666723E-003	2.4880079E-004	1.9823476E-003	7.2101021E+000	1.692467787628041E-008
1.7778128E+002	5.0418735E+002	6.0244968E+001	5.0777390E+002	-6.8139234E+000	4.967624865283142E+001	3.3075960E+000	1.4725293E-006	1.4859812E+001	2.0917711E-001	1.000000000000000E+000	12	1.3023762E-001	2.5648743E-004	-8.230650912482006E-006	-2.1868854E-004	1.9554703E-003	2.3365767E-004	1.9693805E-003	6.8139234E+000	-1.286147063405620E-007
1.5842838E+002	5.0754935E+002	5.7415508E+001	5.1078653E+002	-6.4540339E+000	5.044275962258689E+001	3.3075979E+000	-6.1649123E-005	1.7496773E+001	2.2107393E-001	1.000000000000000E+000	12	1.3021930E-001	2.5493879E-004	-8.049250981440916E-006	1.8232394E-004	1.9453574E-003	2.2006468E-004	1.9577651E-003	6.4540339E+000	1.813999310410908E-007
1.4131134E+002	5.1073770E+002	5.4879436E+001	5.1367767E+002	-6.1329756E+000	5.119589269833523E+001	3.3075988E+000	-4.9779253E-005	2.0522654E+001	2.3424557E-001	1.000000000000000E+000	12	1.3021250E-001	2.5349067E-004	-8.228866522682336E-006	-5.3949852E-004	1.9356041E-003	2.0798320E-004	1.9467461E-003	6.1329756E+000	-1.796155412414208E-007
1.2584569E+002	5.1359753E+002	5.2565998E+001	5.1628058E+002	-5.8437953E+000	5.195141094751307E+001	3.3075988E+000	-4.7651625E-005	2.4058962E+001	2.4941072E-001	1.000000000000000E+000	12	1.3019757E-001	2.5218376E-004	-8.110275256793506E-006	1.0212145E-004	1.9268654E-003	1.9721201E-004	1.9369313E-003	5.8437953E+000	1.185912658888306E-007
1.1218996E+002	5.1633063E+002	5.0546082E+001	5.1879883E+002	-5.5911431E+000	5.269686996962992E+001	3.3076005E+000	-5.3176427E-005	2.8065880E+001	2.6641315E-001	1.000000000000000E+000	12	1.3019657E-001	2.5095773E-004	-8.017056472245410E-006	2.1918953E-005	1.9183592E-003	1.8779737E-004	1.9275295E-003	5.5911431E+000	9.321878454809614E-008
1.0003201E+002	5.1886810E+002	4.8810825E+001	5.2115894E+002	-5.3740978E+000	5.345667368574505E+001	3.3076005E+000	-4.2837099E-005	3.2596050E+001	2.8592816E-001	1.000000000000000E+000	12	1.3018310E-001	2.4979538E-004	-8.164245725602894E-006	2.1918953E-005	1.9103661E-003	1.7971145E-004	1.9188004E-003	5.3740978E+000	-1.471892533574842E-007
8.9115974E+001	5.2135461E+002	4.7390118E+001	5.2350403E+002	-5.1938014E+000	5.422374673550075E+001	3.3076067E+000	-1.1911346E-005	3.7685719E+001	3.0882490E-001	1.000000000000000E+000	12	1.3018361E-001	2.4867739E-004	-8.363555697200355E-006	1.0212145E-004	1.9023621E-003	1.7292101E-004	1.9102050E-003	5.1938014E+000	-1.993099715974613E-007
7.9415527E+001	5.2373242E+002	4.6176403E+001	5.2576410E+002	-5.0386209E+000	5.498824621175299E+001	3.3076005E+000	-2.0552758E-005	4.3400486E+001	3.3477494E-001	1.000000000000000E+000	12	1.3017708E-001	2.4759598E-004	-8.126130339366177E-006	1.8232394E-004	1.8946438E-003	1.6704682E-004	1.9019936E-003	5.0386209E+000	2.374253578341784E-007
7.0838745E+001	5.2603870E+002	4.5230335E+001	5.2797961E+002	-4.9143705E+000	5.573940171414870E+001	3.3075924E+000	-2.1466913E-005	4.9672894E+001	3.6453965E-001	1.000000000000000E+000	12	1.3017327E-001	2.4654978E-004	-8.204412250894368E-006	-3.7909354E-004	1.8870499E-003	1.6225403E-004	1.8940126E-003	4.9143705E+000	-7.828191152819099E-008
6.3082302E+001	5.2829059E+002	4.4540485E+001	5.3016486E+002	-4.8192430E+000	5.651982100456371E+001	3.3076062E+000	-3.2534786E-005	5.6644489E+001	3.9980265E-001	1.000000000000000E+000	12	1.3016739E-001	2.4552247E-004	-8.338450564752243E-006	2.1918953E-005	1.8795375E-003	1.5846489E-004	1.8862057E-003	4.8192430E+000	-1.340383138578753E-007
5.6241817E+001	5.3051648E+002	4.4125160E+001	5.3234833E+002	-4.7545738E+000	5.726332047986216E+001	3.3076024E+000	1.5543808E-005	6.4131958E+001	4.4061098E-001	1.000000000000000E+000	12	1.3016434E-001	2.4450972E-004	-8.264392100285882E-006	1.0212145E-004	1.8720053E-003	1.5570212E-004	1.8784694E-003	4.7545738E+000	7.405846446636104E-008
5.0144413E+001	5.3278522E+002	4.3888992E+001	5.3458984E+002	-4.7091942E+000	5.802018112913356E+001	3.3076019E+000	-4.5393739E-005	7.2317253E+001	4.8742944E-001	1.000000000000000E+000	12	1.3016284E-001	2.4348167E-004	-8.187487655130098E-006	-2.1868854E-004	1.8642782E-003	1.5357275E-004	1.8705929E-003	4.7091942E+000	7.690444515578374E-008
4.4671219E+001	5.3500848E+002	4.3856144E+001	5.3680298E+002	-4.6862178E+000	5.878423764542094E+001	3.3076005E+000	-3.8245500E-005	8.1238495E+001	5.4224175E-001	1.000000000000000E+000	12	1.3016194E-001	2.4247619E-004	-8.320270671709699E-006	1.0212145E-004	1.8566534E-003	1.5219508E-004	1.8628809E-003	4.6862178E+000	-1.327830165796010E-007
3.9808922E+001	5.3738019E+002	4.4102356E+001	5.3918689E+002	-4.6917033E+000	5.954671154834068E+001	3.3075969E+000	-5.3866926E-005	9.0652115E+001	6.0648888E-001	1.000000000000000E+000	12	1.3016322E-001	2.4140649E-004	-8.070408048740421E-006	2.1918953E-005	1.8484300E-003	1.5169915E-004	1.8546445E-003	4.6917033E+000	2.498626229692785E-007
3.5465305E+001	5.3964624E+002	4.4478470E+001	5.4147614E+002	-4.7117558E+000	6.029715025061159E+001	3.3075948E+000	-1.2638638E-005	1.0089429E+002	6.8078130E-001	1.000000000000000E+000	12	1.3015631E-001	2.4037313E-004	-8.525851870522375E-006	-2.1868854E-004	1.8405623E-003	1.5170197E-004	1.8468035E-003	4.7117558E+000	-4.554438217819549E-007
3.1629551E+001	5.4197522E+002	4.5122955E+001	5.4385034E+002	-4.7592692E+000	6.102143724498455E+001	3.3076003E+000	-1.4915465E-005	1.1151404E+002	7.6765454E-001	1.000000000000000E+000	12	1.3015538E-001	2.3932206E-004	-8.503982953995647E-006	4.2293142E-004	1.8324013E-003	1.5255930E-004	1.8387411E-003	4.7592692E+000	2.186891652672835E-008
2.8170074E+001	5.4447803E+002	4.5954468E+001	5.4641388E+002	-4.8243852E+000	6.182678165663674E+001	3.3076127E+000	1.2875069E-005	1.2294316E+002	8.6959380E-001	1.000000000000000E+000	12	1.3015404E-001	2.3819682E-004	-7.852532122213031E-006	2.1918953E-005	1.8236306E-003	1.5391619E-004	1.8301145E-003	4.8243852E+000	6.514508317826157E-007
2.5104435E+001	5.4698517E+002	4.6963135E+001	5.4899756E+002	-4.9072747E+000	6.258294521254720E+001	3.3076003E+000	1.6477103E-005	1.3499342E+002	9.8783851E-001	1.000000000000000E+000	12	1.3015592E-001	2.3707924E-004	-7.707834715793272E-006	5.8333640E-004	1.8148250E-003	1.5581750E-004	1.8215018E-003	4.9072747E+000	1.446974064197597E-007
2.2385387E+001	5.4956927E+002	4.8214268E+001	5.5168018E+002	-5.0137796E+000	6.326941399180214E+001	3.3075948E+000	3.1510694E-006	1.4746194E+002	1.1263058E+000	1.000000000000000E+000	12	1.3015191E-001	2.3591913E-004	-8.448506166329834E-006	1.8232394E-004	1.8057087E-003	1.5841665E-004	1.8126444E-003	5.0137796E+000	-7.406714505365623E-007
1.9955299E+001	5.5230890E+002	4.9633575E+001	5.5453461E+002	-5.1351261E+000	6.403120424129884E+001	3.3075969E+000	-1.7640461E-005	1.6068906E+002	1.2873011E+000	1.000000000000000E+000	12	1.3015559E-001	2.3471141E-004	-8.329508975080292E-006	-2.1868854E-004	1.7960762E-003	1.6140548E-004	1.8033140E-003	5.1351261E+000	1.189971912495415E-007
1.7796129E+001	5.5506342E+002	5.1264523E+001	5.5742572E+002	-5.2767515E+000	6.487551836136845E+001	3.3075948E+000	-5.6414592E-005	1.7445268E+002	1.4754941E+000	1.000000000000000E+000	12	1.3015325E-001	2.3348986E-004	-8.454494166637434E-006	3.4272892E-004	1.7863584E-003	1.6498441E-004	1.7939610E-003	5.2767515E+000	-1.249851915571417E-007
1.5857576E+001	5.5800323E+002	5.3077351E+001	5.6052191E+002	-5.4336348E+000	6.559795412907260E+001	3.3075974E+000	1.1325894E-005	1.8909241E+002	1.6955373E+000	1.000000000000000E+000	12	1.3015053E-001	2.3219526E-004	-7.920129150449713E-006	2.1918953E-005	1.7760349E-003	1.6893671E-004	1.7840515E-003	5.4336348E+000	5.343650161877216E-007
1.4118974E+001	5.6108685E+002	5.5139408E+001	5.6378967E+002	-5.6125784E+000	6.640026678048889E+001	3.3076043E+000	1.6887858E-005	2.0443483E+002	1.9554417E+000	1.000000000000000E+000	12	1.3015482E-001	2.3085705E-004	-8.870952086361083E-006	7.4374140E-004	1.7652079E-003	1.7347140E-004	1.7737111E-003	5.6125784E+000	-9.508229359113703E-007
1.2600808E+001	5.6423035E+002	5.7363754E+001	5.6713885E+002	-5.8051586E+000	6.729086908948375E+001	3.3075955E+000	-5.5612243E-005	2.2018320E+002	2.2525814E+000	1.000000000000000E+000	12	1.3014953E-001	2.2948442E-004	-8.416565436559418E-006	1.0212145E-004	1.7541940E-003	1.7834410E-004	1.7632366E-003	5.8051586E+000	4.543866498016646E-007
1.1224856E+001	5.6770862E+002	5.9751087E+001	5.7084436E+002	-6.0082355E+000	6.797491216196795E+001	3.3075879E+000	-3.7330756E-005	2.3729770E+002	2.5998585E+000	1.000000000000000E+000	12	1.3014713E-001	2.2799056E-004	-8.987386718270298E-006	-3.7909354E-004	1.7421682E-003	1.8336243E-004	1.7517910E-003	6.0082355E+000	-5.708212817108801E-007
1.0003201E+001	5.7125317E+002	6.2489532E+001	5.7466089E+002	-6.2427783E+000	6.873567070479476E+001	3.3076034E+000	-3.0574636E-005	2.5460907E+002	3.0106838E+000	1.000000000000000E+000	12	1.3014606E-001	2.2647453E-004	-7.165837172843870E-006	-5.8283542E-005	1.7298376E-003	1.8922739E-004	1.7401567E-003	6.2427783E+000	1.821549545426428E-006
8.9183798E+000	5.7501990E+002	6.5364151E+001	5.7872302E+002	-6.4851375E+000	6.958001941154362E+001	3.3075914E+000	4.3567859E-005	2.7302005E+002	3.4828300E+000	1.000000000000000E+000	12	1.3015118E-001	2.2489374E-004	-9.274518049362490E-006	1.0212145E-004	1.7168855E-003	1.9516326E-004	1.7279423E-003	6.4851375E+000	-2.108680876518620E-006
7.9395342E+000	5.7896411E+002	6.8458534E+001	5.8299744E+002	-6.7435212E+000	7.051870436281752E+001	3.3076003E+000	-3.8189395E-005	2.9281784E+002	4.0375643E+000	1.000000000000000E+000	12	1.3014486E-001	2.2323402E-004	-6.952812486802537E-006	1.0212145E-004	1.7034067E-003	2.0141616E-004	1.7152734E-003	6.7435212E+000	2.321705562559953E-006
7.0765405E+000	5.8304553E+002	7.1721382E+001	5.8744025E+002	-7.0128164E+000	7.107702017598785E+001	3.3075848E+000	1.4660195E-004	3.1358154E+002	4.6743412E+000	1.000000000000000E+000	12	1.3014862E-001	2.2155209E-004	-6.918958320262189E-006	-1.3848604E-004	1.6895657E-003	2.0783623E-004	1.7023009E-003	7.0128164E+000	3.385416654034834E-008
6.3105822E+000	5.8738586E+002	7.5235428E+001	5.9218451E+002	-7.2989988E+000	7.169720143210725E+001	3.3075895E+000	2.8184053E-004	3.3521875E+002	5.4107690E+000	1.000000000000000E+000	12	1.3015974E-001	2.1979591E-004	-7.321290977121356E-006	4.2293142E-004	1.6749791E-003	2.1454002E-004	1.6886629E-003	7.2989988E+000	-4.023326568591678E-007
5.6205034E+000	5.9194031E+002	7.9157692E+001	5.9720959E+002	-7.6167359E+000	7.238367258472863E+001	3.3075981E+000	4.2706414E-004	3.5772708E+002	6.2846994E+000	1.000000000000000E+000	12	1.3014542E-001	2.1792251E-004	-8.736792123556370E-006	-2.1868854E-004	1.6596800E-003	2.2194203E-004	1.6744540E-003	7.6167359E+000	-1.415501146435013E-006
5.0144415E+000	5.9711267E+002	8.3035950E+001	6.0285864E+002	-7.9169183E+000	7.314118672735640E+001	3.3076150E+000	1.0757554E-004	3.8223587E+002	7.2515817E+000	1.000000000000000E+000	12	1.3014172E-001	2.1587434E-004	-1.048919720165052E-005	-5.8283542E-005	1.6429537E-003	2.2847316E-004	1.6587636E-003	7.9169183E+000	-1.752405078094146E-006
4.4693937E+000	6.0210071E+002	8.7100082E+001	6.0836804E+002	-8.2313251E+000	7.398252212730586E+001	3.3075926E+000	-2.5954339E-004	4.0883957E+002	8.3802557E+000	1.000000000000000E+000	12	1.3015305E-001	2.1393801E-004	-9.179990768631494E-006	1.8232394E-004	1.6268082E-003	2.3533461E-004	1.6437419E-003	8.2313251E+000	1.309206433019022E-006
3.9778514E+000	6.0783154E+002	9.1915108E+001	6.1474188E+002	-8.5990076E+000	7.491917225180077E+001	3.3075922E+000	-4.7250847E-005	4.3529599E+002	9.7313452E+000	1.000000000000000E+000	12	1.3014585E-001	2.1170812E-004	-6.030857341003866E-006	-2.1868854E-004	1.6084132E-003	2.4322113E-004	1.6266990E-003	8.5990076E+000	3.149133427627628E-006
3.5511365E+000	6.1349188E+002	9.6381653E+001	6.2101666E+002	-8.9283829E+000	7.596044240790070E+001	3.3076036E+000	2.5260315E-004	4.6500583E+002	1.1200583E+001	1.000000000000000E+000	12	1.3014981E-001	2.0957539E-004	-8.632923795550596E-006	-3.7909354E-004	1.5907513E-003	2.4991244E-004	1.6102628E-003	8.9283829E+000	-2.602066454546730E-006
3.1603966E+000	6.1993805E+002	1.0154027E+002	6.2819873E+002	-9.3019361E+000	7.712328307647840E+001	3.3076026E+000	3.6885820E-005	4.9595270E+002	1.2957546E+001	1.000000000000000E+000	12	1.3014728E-001	2.0717533E-004	-1.102085846298077E-005	-2.9889104E-004	1.5709206E-003	2.5730260E-004	1.5918530E-003	9.3019361E+000	-2.387934667430171E-006
2.8183618E+000	6.2618915E+002	1.0685858E+002	6.3524139E+002	-9.6841850E+000	7.841869281804247E+001	3.3076079E+000	-4.4355300E-005	5.2846228E+002	1.4953925E+001	1.000000000000000E+000	12	1.3014917E-001	2.0488143E-004	-5.360570227327116E-006	2.1918953E-005	1.5517722E-003	2.6480848E-004	1.5742048E-003	9.6841850E+000	5.660288235653651E-006
2.5136740E+000	6.3305975E+002	1.1211408E+002	6.4291077E+002	-1.0042879E+001	7.986275339328859E+001	3.3076172E+000	2.6454474E-004	5.6474323E+002	1.7173941E+001	1.000000000000000E+000	12	1.3014543E-001	2.0243156E-004	-9.224363007456607E-006	2.1918953E-005	1.5315928E-003	2.7124316E-004	1.5554258E-003	1.0042879E+001	-3.863792780129491E-006
2.2398219E+000	6.4059863E+002	1.1802882E+002	6.5138116E+002	-1.0439534E+001	8.147738973659580E+001	3.3076081E+000	2.8113933E-005	6.0203058E+002	1.9766251E+001	1.000000000000000E+000	12	1.3014969E-001	1.9980573E-004	-1.026202995696642E-005	-5.8283542E-005	1.5097868E-003	2.7817470E-004	1.5351995E-003	1.0439534E+001	-1.037666949509811E-006
1.9970604E+000	6.4822357E+002	1.2427550E+002	6.6002893E+002	-1.0852888E+001	8.328164256902528E+001	3.3076172E+000	6.1671482E-005	6.4127368E+002	2.2734661E+001	1.000000000000000E+000	12	1.3014948E-001	1.9718755E-004	-4.001527263599807E-006	-5.8283542E-005	1.4879861E-003	2.8527228E-004	1.5150851E-003	1.0852888E+001	6.260502693366611E-006
1.7796129E+000	6.5625049E+002	1.3055286E+002	6.6911041E+002	-1.1251388E+001	8.529995562485419E+001	3.3076184E+000	2.3169210E-004	6.8502783E+002	2.6078667E+001	1.000000000000000E+000	12	1.3014615E-001	1.9450624E-004	-1.298102044205573E-005	-2.1868854E-004	1.4657978E-003	2.9160219E-004	1.4945216E-003	1.1251388E+001	-8.979493178455919E-006
1.5846854E+000	6.6494727E+002	1.3714427E+002	6.7894287E+002	-1.1653749E+001	8.755914247882902E+001	3.3076117E+000	1.6595887E-006	7.3231750E+002	2.9880529E+001	1.000000000000000E+000	12	1.3014975E-001	1.9169471E-004	-3.982716356716184E-006	2.6252642E-004	1.4425163E-003	2.9751658E-004	1.4728779E-003	1.1653749E+001	8.998304085339541E-006
1.4122382E+000	6.7417535E+002	1.4401732E+002	6.8938623E+002	-1.2058282E+001	9.008810595891555E+001	3.3076200E+000	2.0965662E-004	7.8252356E+002	3.4150860E+001	1.000000000000000E+000	12	1.3014713E-001	1.8878696E-004	-1.013191545891782E-005	-2.9889104E-004	1.4185598E-003	3.0303269E-004	1.4505656E-003	1.2058282E+001	-6.149199102201640E-006
1.2596743E+000	6.8383069E+002	1.5130301E+002	7.0036920E+002	-1.2476151E+001	9.291691710666055E+001	3.3076160E+000	4.3801083E-005	8.3505347E+002	3.8972237E+001	1.000000000000000E+000	12	1.3014884E-001	1.8582890E-004	-8.208422413726415E-006	-1.3848604E-004	1.3941019E-003	3.0845616E-004	1.4278183E-003	1.2476151E+001	1.923493045191409E-006
1.1224856E+000	6.9401770E+002	1.5897794E+002	7.1199335E+002	-1.2902092E+001	9.608502352380310E+001	3.3076227E+000	1.6024460E-004	8.9187189E+002	4.4465614E+001	1.000000000000000E+000	12	1.3014661E-001	1.8279189E-004	-4.729691687238907E-006	2.1918953E-005	1.3690480E-003	3.1360646E-004	1.4045076E-003	1.2902092E+001	3.478730726487508E-006
1.0000638E+000	7.0464941E+002	1.6698840E+002	7.2416565E+002	-1.3332058E+001	9.963419678565697E+001	3.3076141E+000	1.6301018E-004	9.5302905E+002	5.0676067E+001	1.000000000000000E+000	12	1.3014939E-001	1.7972324E-004	-1.316992208697937E-005	2.1918953E-005	1.3436844E-003	3.1842745E-004	1.3808996E-003	1.3332058E+001	-8.440230399740458E-006