EC-Lab ASCII FILE
Nb header lines : 60                          

Potentio Electrochemical Impedance Spectroscopy

Run on channel : 2 (SN 20919)
User : 
CE vs. WE compliance from -10 V to 10 V
Electrode connection : standard
Ewe ctrl range : min = -10.00 V, max = 10.00 V
Acquisition started on : 12/03/2020 16:54:32
Technique started on : 12/03/2020 16:54:33
Saved on :
	File : DE_206_2_30.mpr
	Directory : P:\Chemistry\Data\VMP3\Kyler\DOE\DE_206\
	Host : 10.0.4.64
Device : VMP3 (SN 1432)
Address : USB
EC-Lab for windows v11.33 (software)
Internet server v11.32 (firmware)
Command interpretor v11.33 (firmware)
Electrode material : 
Initial state : 
Electrolyte : 
Comments : 
Electrode surface area : 0.001 cm²
Characteristic mass : 0.001 g
Equivalent Weight : 0.000 g/eq.
Density : 0.000 g/cm3
Record Analogic IN 1
Cycle Definition : Charge/Discharge alternance
Mode                Single sine         
E (V)               0.0000              
vs.                 Eoc                 
tE (h:m:s)          0:00:0.0000         
record              0                   
dI                  1.000               
unit dI             mA                  
dt (s)              0.000               
fi                  1.000               
unit fi             MHz                 
ff                  1.000               
unit ff             Hz                  
Nd                  20                  
Points              per decade          
spacing             Logarithmic         
Va (mV)             128.0               
pw                  0.50                
Na                  3                   
corr                0                   
E range min (V)     -10.000             
E range max (V)     10.000              
I Range             Auto                
Bandwidth           5                   
nc cycles           0                   
goto Ns'            0                   
nr cycles           0                   
inc. cycle          1                   

freq/Hz	Re(Z)/Ohm	-Im(Z)/Ohm	|Z|/Ohm	Phase(Z)/deg	time/s	<Ewe>/V	<I>/mA	Cs/µF	Cp/µF	cycle number	I Range	|Ewe|/V	|I|/A	(Q-Qo)/mA.h	Analog IN 1/V	Re(Y)/Ohm-1	Im(Y)/Ohm-1	|Y|/Ohm-1	Phase(Y)/deg	dq/mA.h	
1.0000186E+006	1.2306418E+002	7.9504318E+001	1.4651187E+002	-3.2864056E+001	1.949497052555671E+000	3.3079336E+000	-2.6069786E-003	2.0018029E-003	5.8946380E-004	1.000000000000000E+000	11	1.8413048E-003	1.2567615E-005	-7.214921603517723E-007	2.3964079E-005	5.7330541E-003	3.7037791E-003	6.8253856E-003	3.2864056E+001	-7.214921603517723E-007
8.9124669E+005	1.2930183E+002	7.8229095E+001	1.5112497E+002	-3.1174421E+001	2.544479027477792E+000	3.3083653E+000	-1.9953565E-003	2.2827266E-003	6.1167125E-004	1.000000000000000E+000	11	3.2768652E-003	2.1683149E-005	-1.136498662817555E-006	-5.6216748E-005	5.6615095E-003	3.4252785E-003	6.6170404E-003	3.1174421E+001	-4.150065024657831E-007
7.9433269E+005	1.3665327E+002	7.8099869E+001	1.5739665E+002	-2.9748762E+001	3.140474149113288E+000	3.3087509E+000	-1.5978296E-003	2.5654726E-003	6.3165074E-004	1.000000000000000E+000	11	5.4355371E-003	3.4534009E-005	-1.482916626773456E-006	-2.1657841E-004	5.5160611E-003	3.1525306E-003	6.3533755E-003	2.9748762E+001	-3.464179639559006E-007
7.0794981E+005	1.4436046E+002	7.8311523E+001	1.6423349E+002	-2.8478598E+001	3.736485564120812E+000	3.3090508E+000	-1.4331690E-003	2.8707276E-003	6.5270939E-004	1.000000000000000E+000	11	8.4278733E-003	5.1316412E-005	-1.596545848563336E-006	1.0414491E-004	5.3521073E-003	2.9033690E-003	6.0888920E-003	2.8478598E+001	-1.136292217898801E-007
6.3095681E+005	1.5196674E+002	7.8831436E+001	1.7119662E+002	-2.7417637E+001	4.331496525701368E+000	3.3093147E+000	-1.1774427E-003	3.1997869E-003	6.7846826E-004	1.000000000000000E+000	11	1.2334359E-002	7.2047907E-005	-1.860299315572977E-006	3.4468737E-004	5.1851119E-003	2.6897320E-003	5.8412366E-003	2.7417637E+001	-2.637534670096405E-007
5.6234225E+005	1.5975276E+002	7.9074921E+001	1.7825203E+002	-2.6334635E+001	4.927493087336188E+000	3.3095095E+000	-1.0988290E-003	3.5791565E-003	7.0435117E-004	1.000000000000000E+000	11	1.7205160E-002	9.6521537E-005	-2.130566651157601E-006	1.8432573E-004	5.0278162E-003	2.4886844E-003	5.6100343E-003	2.6334635E+001	-2.702673355846246E-007
5.0120619E+005	1.6725673E+002	7.9222832E+001	1.8507045E+002	-2.5345045E+001	5.523487489001127E+000	3.3096752E+000	-9.7784249E-004	4.0082368E-003	7.3447992E-004	1.000000000000000E+000	11	2.3040930E-002	1.2449815E-004	-2.483862726463687E-006	3.4468737E-004	4.8832553E-003	2.3130029E-003	5.4033478E-003	2.5345045E+001	-3.532960753060859E-007
4.4668572E+005	1.7460295E+002	7.9076553E+001	1.9167496E+002	-2.4365467E+001	6.118488210573560E+000	3.3098063E+000	-9.5368049E-004	4.5057838E-003	7.6689344E-004	1.000000000000000E+000	11	2.9843628E-002	1.5569915E-004	-2.576218114020271E-006	1.0414491E-004	4.7524855E-003	2.1523703E-003	5.2171657E-003	2.4365467E+001	-9.235538755658345E-008
3.9810347E+005	1.8169653E+002	7.8579773E+001	1.9796063E+002	-2.3387424E+001	6.713474612188293E+000	3.3098640E+000	-9.0759021E-004	5.0876057E-003	8.0163614E-004	1.000000000000000E+000	11	3.7600890E-002	1.8994125E-004	-2.719069598661412E-006	2.3964079E-005	4.6364865E-003	2.0051787E-003	5.0515095E-003	2.3387424E+001	-1.428514846411418E-007
3.5480997E+005	1.8880997E+002	7.7919502E+001	2.0425635E+002	-2.2425325E+001	7.309477840462932E+000	3.3098946E+000	-9.4587432E-004	5.7567600E-003	8.3775952E-004	1.000000000000000E+000	11	4.6408176E-002	2.2720556E-004	-3.287730226760484E-006	2.3964079E-005	4.5255753E-003	1.8676482E-003	4.8958086E-003	2.2425325E+001	-5.686606280990720E-007
3.1622997E+005	1.9548476E+002	7.6910133E+001	2.1007013E+002	-2.1476307E+001	7.904478188749636E+000	3.3098819E+000	-1.0114777E-003	6.5438529E-003	8.7714638E-004	1.000000000000000E+000	11	5.6295794E-002	2.6798571E-004	-3.521990728313136E-006	1.8432573E-004	4.4298018E-003	1.7428297E-003	4.7603152E-003	2.1476307E+001	-2.342605015526511E-007
2.8183453E+005	2.0191446E+002	7.5728561E+001	2.1564847E+002	-2.0558691E+001	8.499490510352189E+000	3.3098958E+000	-9.4791554E-004	7.4570356E-003	9.1958710E-004	1.000000000000000E+000	11	6.7317516E-002	3.1216320E-004	-3.242450495795411E-006	2.3964079E-005	4.3418487E-003	1.6284219E-003	4.6371766E-003	2.0558691E+001	2.795402325177242E-007
2.5118764E+005	2.0806744E+002	7.4380486E+001	2.2096271E+002	-1.9671085E+001	9.094494885270251E+000	3.3098903E+000	-9.8954223E-004	8.5184947E-003	9.6525688E-004	1.000000000000000E+000	11	7.9502776E-002	3.5980178E-004	-3.564396838473234E-006	-3.7694006E-004	4.2615361E-003	1.5234250E-003	4.5256508E-003	1.9671085E+001	-3.219463426778225E-007
2.2387173E+005	2.1392938E+002	7.2869850E+001	2.2599954E+002	-1.8810163E+001	9.690494086913532E+000	3.3099136E+000	-8.8453834E-004	9.7560268E-003	1.0142701E-003	1.000000000000000E+000	11	9.2867874E-002	4.1092062E-004	-3.560860141823974E-006	-2.9675924E-004	4.1884687E-003	1.4267003E-003	4.4247876E-003	1.8810163E+001	3.536696649260253E-009
1.9954350E+005	2.1951497E+002	7.1305504E+001	2.3080576E+002	-1.7995459E+001	1.028748731527594E+001	3.3098614E+000	-1.0900847E-003	1.1185606E-002	1.0676093E-003	1.000000000000000E+000	11	1.0737374E-001	4.6521259E-004	-3.063801205275619E-006	2.6450655E-004	4.1206987E-003	1.3385351E-003	4.3326477E-003	1.7995459E+001	4.970589365483543E-007
1.7783180E+005	2.2485426E+002	6.9773331E+001	2.3543100E+002	-1.7239361E+001	1.074647149708471E+001	3.3098967E+000	-9.7188551E-004	1.2826886E-002	1.1266081E-003	1.000000000000000E+000	11	1.2304042E-001	5.2261772E-004	-3.475475672738361E-006	-2.1657841E-004	4.0567089E-003	1.2588156E-003	4.2475290E-003	1.7239361E+001	-4.116744674627422E-007
1.5848613E+005	2.2991405E+002	6.8208199E+001	2.3981833E+002	-1.6523951E+001	1.120648527893354E+001	3.3098807E+000	-1.1493685E-003	1.4722863E-002	1.1909697E-003	1.000000000000000E+000	11	1.3980448E-001	5.8295997E-004	-3.415777124156497E-006	-5.6216748E-005	3.9976132E-003	1.1859649E-003	4.1698231E-003	1.6523951E+001	5.969854858186490E-008
1.4125594E+005	2.3486003E+002	6.6646744E+001	2.4413321E+002	-1.5842466E+001	1.180148005383671E+001	3.3099210E+000	-1.0397193E-003	1.6905751E-002	1.2599074E-003	1.000000000000000E+000	11	1.3037060E-001	5.3401419E-004	-4.157244259490754E-006	1.0414491E-004	3.9405366E-003	1.1182147E-003	4.0961243E-003	1.5842466E+001	-7.414671353342577E-007
1.2590930E+005	2.3949391E+002	6.5136063E+001	2.4819356E+002	-1.5214928E+001	1.239848442884977E+001	3.3099403E+000	-1.0464104E-003	1.9406214E-002	1.3366042E-003	1.000000000000000E+000	11	1.2995069E-001	5.2358606E-004	-4.635753206749440E-006	-1.3639758E-004	3.8878855E-003	1.0574029E-003	4.0291133E-003	1.5214928E+001	-4.785089472586857E-007
1.1220494E+005	2.4397179E+002	6.3693871E+001	2.5214905E+002	-1.4631660E+001	1.299349453710602E+001	3.3099906E+000	-8.8602485E-004	2.2269502E-002	1.4209903E-003	1.000000000000000E+000	11	1.2971503E-001	5.1443791E-004	-4.324758726239250E-006	1.0414491E-004	3.8372928E-003	1.0018045E-003	3.9659082E-003	1.4631660E+001	3.109944805101903E-007
1.0000371E+005	2.4825420E+002	6.2341148E+001	2.5596204E+002	-1.4096528E+001	1.358948205880006E+001	3.3099706E+000	-1.0430656E-003	2.5528729E-002	1.5143550E-003	1.000000000000000E+000	11	1.2971275E-001	5.0676556E-004	-4.793958746468383E-006	2.3964079E-005	3.7891821E-003	9.5153262E-004	3.9068293E-003	1.4096528E+001	-4.692000202291336E-007
8.9129305E+004	2.5236427E+002	6.1104298E+001	2.5965643E+002	-1.3610928E+001	1.418547992708045E+001	3.3099828E+000	-1.0527306E-003	2.9223207E-002	1.6183527E-003	1.000000000000000E+000	11	1.2948817E-001	4.9869041E-004	-5.348176632028804E-006	-4.5712088E-004	3.7430851E-003	9.0630329E-004	3.8512428E-003	1.3610928E+001	-5.542178855604208E-007
7.9433273E+004	2.5634290E+002	5.9971485E+001	2.6326462E+002	-1.3167540E+001	1.478148150208290E+001	3.3100169E+000	-9.6482463E-004	3.3409722E-002	1.7337141E-003	1.000000000000000E+000	11	1.2945187E-001	4.9171771E-004	-5.934715667950514E-006	2.3964079E-005	3.6985909E-003	8.6528633E-004	3.7984597E-003	1.3167540E+001	-5.865390359217095E-007
7.0794977E+004	2.6014108E+002	5.8954216E+001	2.6673767E+002	-1.2768917E+001	1.537649291698472E+001	3.3100080E+000	-1.0092412E-003	3.8133163E-002	1.8627897E-003	1.000000000000000E+000	11	1.2935084E-001	4.8493652E-004	-6.382022263122457E-006	-2.1657841E-004	3.6562867E-003	8.2860229E-004	3.7490018E-003	1.2768917E+001	-4.473065951719437E-007
6.3093828E+004	2.6379758E+002	5.8088203E+001	2.7011737E+002	-1.2418344E+001	1.583647568550077E+001	3.3100159E+000	-9.9994882E-004	4.3425545E-002	2.0082425E-003	1.000000000000000E+000	11	1.4031550E-001	5.1946123E-004	-7.004806054661458E-006	-2.1657841E-004	3.6154783E-003	7.9612806E-004	3.7020943E-003	1.2418344E+001	-6.227837915390005E-007
5.6237012E+004	2.6737396E+002	5.7396851E+001	2.7346524E+002	-1.2115742E+001	1.643248464711360E+001	3.3100212E+000	-9.9102780E-004	4.9307145E-002	2.1721094E-003	1.000000000000000E+000	11	1.3024862E-001	4.7628951E-004	-8.059661291840408E-006	-3.7694006E-004	3.5753197E-003	7.6750963E-004	3.6567720E-003	1.2115742E+001	-1.054855237178950E-006
5.0122477E+004	2.7087823E+002	5.6837063E+001	2.7677692E+002	-1.1850183E+001	1.689149400228052E+001	3.3100274E+000	-9.8545360E-004	5.5867080E-002	2.3559143E-003	1.000000000000000E+000	11	1.3934603E-001	5.0345971E-004	-8.220389130569754E-006	1.8432573E-004	3.5360169E-003	7.4194529E-004	3.6130180E-003	1.1850183E+001	-1.607278387293466E-007
4.4666715E+004	2.7432129E+002	5.6463951E+001	2.8007205E+002	-1.1630836E+001	1.748648048387258E+001	3.3100321E+000	-1.0062676E-003	6.3105159E-002	2.5648847E-003	1.000000000000000E+000	11	1.3006090E-001	4.6438372E-004	-7.739238330592747E-006	-5.6216748E-005	3.4971961E-003	7.1983301E-004	3.5705098E-003	1.1630836E+001	4.811507999770073E-007
3.9814063E+004	2.7766394E+002	5.6305347E+001	2.8331531E+002	-1.1463136E+001	1.794647914569941E+001	3.3100090E+000	-1.0670385E-003	7.0996016E-002	2.8040982E-003	1.000000000000000E+000	11	1.3714059E-001	4.8405642E-004	-7.677588849895175E-006	-5.6216748E-005	3.4592301E-003	7.0147077E-004	3.5296364E-003	1.1463136E+001	6.164948069757260E-008
3.5480996E+004	2.8099448E+002	5.6300644E+001	2.8657922E+002	-1.1329880E+001	1.854149450731347E+001	3.3100584E+000	-9.2839811E-004	7.9672962E-002	3.0750225E-003	1.000000000000000E+000	11	1.2951744E-001	4.5194288E-004	-8.600852901728810E-006	-1.3639758E-004	3.4214356E-003	6.8552600E-004	3.4894366E-003	1.1329880E+001	-9.232640518336357E-007
3.1621143E+004	2.8432126E+002	5.6507755E+001	2.8988223E+002	-1.1240838E+001	1.900049663576647E+001	3.3100493E+000	-9.2932692E-004	8.9070626E-002	3.3846006E-003	1.000000000000000E+000	11	1.3472737E-001	4.6476591E-004	-9.084431147187489E-006	2.3964079E-005	3.3834998E-003	6.7245751E-004	3.4496768E-003	1.1240838E+001	-4.835782454586790E-007
2.8188096E+004	2.8763461E+002	5.6889702E+001	2.9320660E+002	-1.1187830E+001	1.946049039097852E+001	3.3100364E+000	-9.8898343E-004	9.9247761E-002	3.7362897E-003	1.000000000000000E+000	11	1.3928099E-001	4.7502678E-004	-9.097736342249139E-006	-1.3639758E-004	3.3457512E-003	6.6173810E-004	3.4105643E-003	1.1187830E+001	-1.330519506164943E-008
2.5116910E+004	2.9096509E+002	5.7475292E+001	2.9658740E+002	-1.1173973E+001	2.005648836595356E+001	3.3100488E+000	-1.0036660E-003	1.1024851E-001	4.1402797E-003	1.000000000000000E+000	11	1.2953588E-001	4.3675452E-004	-9.093734091454988E-006	-4.5712088E-004	3.3077712E-003	6.5339502E-004	3.3716874E-003	1.1173973E+001	4.002250794150767E-009
2.2389027E+004	2.9434988E+002	5.8268429E+001	3.0006177E+002	-1.1197299E+001	2.051548844107310E+001	3.3100457E+000	-9.2932669E-004	1.2199769E-001	4.6004136E-003	1.000000000000000E+000	11	1.3252878E-001	4.4167167E-004	-9.170130026937436E-006	3.4468737E-004	3.2692081E-003	6.4716046E-004	3.3326473E-003	1.1197299E+001	-7.639593548244794E-008
1.9948783E+004	2.9781696E+002	5.9273125E+001	3.0365811E+002	-1.1256227E+001	2.097547334289993E+001	3.3100536E+000	-9.8415196E-004	1.3460027E-001	5.1285168E-003	1.000000000000000E+000	11	1.3502356E-001	4.4465656E-004	-8.914456724392948E-006	1.8432573E-004	3.2298299E-003	6.4281805E-004	3.2931773E-003	1.1256227E+001	2.556733025444879E-007
1.7786895E+004	3.0136496E+002	6.0469967E+001	3.0737186E+002	-1.1345936E+001	2.143548792475485E+001	3.3100441E+000	-1.0163039E-003	1.4797226E-001	5.7270573E-003	1.000000000000000E+000	11	1.3706309E-001	4.4591943E-004	-9.103306817417939E-006	-5.6216748E-005	3.1898080E-003	6.4004643E-004	3.2533882E-003	1.1345936E+001	-1.888500930249910E-007
1.5847686E+004	3.0500571E+002	6.1859726E+001	3.1121555E+002	-1.1464931E+001	2.189548058659420E+001	3.3100441E+000	-1.0019933E-003	1.6234776E-001	6.4141587E-003	1.000000000000000E+000	11	1.3872834E-001	4.4576285E-004	-8.836778667412646E-006	1.0414491E-004	3.1490924E-003	6.3868309E-004	3.2132070E-003	1.1464931E+001	2.665281500052928E-007
1.4121879E+004	3.0878314E+002	6.3496761E+001	3.1524414E+002	-1.1620063E+001	2.235447831507190E+001	3.3100502E+000	-1.0315429E-003	1.7749089E-001	7.2008735E-003	1.000000000000000E+000	11	1.4005068E-001	4.4426101E-004	-8.672195546363254E-006	-2.1657841E-004	3.1071308E-003	6.3893624E-004	3.1721445E-003	1.1620063E+001	1.645831210493923E-007
1.2590932E+004	3.1266547E+002	6.5277542E+001	3.1940704E+002	-1.1792681E+001	2.295047847673413E+001	3.3100486E+000	-1.0399066E-003	1.9364151E-001	8.0879247E-003	1.000000000000000E+000	11	1.2934254E-001	4.0494581E-004	-8.619804296962671E-006	-5.6216748E-005	3.0647211E-003	6.3984498E-004	3.1308013E-003	1.1792681E+001	5.239124940058267E-008
1.1217711E+004	3.1679398E+002	6.7289772E+001	3.2386160E+002	-1.1991890E+001	2.340947580520879E+001	3.3100605E+000	-1.0350748E-003	2.1084674E-001	9.1021927E-003	1.000000000000000E+000	11	1.3010144E-001	4.0171924E-004	-8.863125641304780E-006	-1.3639758E-004	3.0203550E-003	6.4154947E-004	3.0877388E-003	1.1991890E+001	-2.433213443421092E-007
1.0002229E+004	3.2106595E+002	6.9481056E+001	3.2849805E+002	-1.2210935E+001	2.386947236038395E+001	3.3100665E+000	-8.8342407E-004	2.2901128E-001	1.0245287E-002	1.000000000000000E+000	11	1.3069116E-001	3.9784456E-004	-8.936087913157987E-006	1.0414491E-004	2.9752858E-003	6.4387394E-004	3.0441582E-003	1.2210935E+001	-7.296227185320699E-008
8.9149297E+003	3.2555109E+002	7.1864265E+001	3.3338864E+002	-1.2448209E+001	2.435190377000254E+001	3.3100719E+000	-9.8025019E-004	2.4842151E-001	1.1542864E-002	1.000000000000000E+000	11	1.3113828E-001	3.9334956E-004	-9.256926547959058E-006	-3.7694006E-004	2.9289876E-003	6.4656377E-004	2.9995022E-003	1.2448209E+001	-3.208386348010710E-007
7.9439976E+003	3.3030283E+002	7.4408592E+001	3.3858026E+002	-1.2695318E+001	2.487800467497436E+001	3.3100734E+000	-1.0295004E-003	2.6925138E-001	1.3004116E-002	1.000000000000000E+000	11	1.3148083E-001	3.8832988E-004	-9.461377310162384E-006	-1.3639758E-004	2.8813034E-003	6.4908236E-004	2.9535093E-003	1.2695318E+001	-2.044507622033254E-007
7.0822334E+003	3.3525842E+002	7.7117111E+001	3.4401346E+002	-1.2954010E+001	2.545487880904693E+001	3.3100867E+000	-9.7058626E-004	2.9140642E-001	1.4643665E-002	1.000000000000000E+000	11	1.3172683E-001	3.8291185E-004	-9.280144161822844E-006	-1.3639758E-004	2.8328844E-003	6.5162824E-004	2.9068631E-003	1.2954010E+001	1.812331483395395E-007
6.3077344E+003	3.4053571E+002	7.9969902E+001	3.4979959E+002	-1.3215624E+001	2.608955107917427E+001	3.3100924E+000	-1.1112727E-003	3.1551513E-001	1.6490534E-002	1.000000000000000E+000	11	1.3192645E-001	3.7714865E-004	-9.794140805803989E-006	2.6450655E-004	2.7830696E-003	6.5356382E-004	2.8587799E-003	1.3215624E+001	-5.139966439811448E-007
5.6210552E+003	3.4616275E+002	8.2968422E+001	3.5596686E+002	-1.3478417E+001	2.679029233913752E+001	3.3100765E+000	-1.1584780E-003	3.4126318E-001	1.8539412E-002	1.000000000000000E+000	11	1.3206348E-001	3.7099936E-004	-9.926022928259852E-006	-3.7694006E-004	2.7318774E-003	6.5477745E-004	2.8092503E-003	1.3478417E+001	-1.318821224558635E-007
5.0116035E+003	3.5208060E+002	8.6066574E+001	3.6244751E+002	-1.3736641E+001	2.755071240194229E+001	3.3100979E+000	-1.1462122E-003	3.6898515E-001	2.0805957E-002	1.000000000000000E+000	11	1.3215210E-001	3.6461031E-004	-1.026882582572095E-005	2.3964079E-005	2.6801054E-003	6.5515534E-004	2.7590203E-003	1.3736641E+001	-3.428028974610961E-007
4.4664292E+003	3.5840085E+002	8.9227905E+001	3.6934100E+002	-1.3980213E+001	2.831069694471080E+001	3.3101118E+000	-1.0752192E-003	3.9935488E-001	2.3308016E-002	1.000000000000000E+000	11	1.3222495E-001	3.5800235E-004	-1.069462462536386E-005	-5.6216748E-005	2.6273259E-003	6.5410224E-004	2.7075249E-003	1.3980213E+001	-4.257987996429105E-007
3.9812742E+003	3.6502905E+002	9.2483391E+001	3.7656259E+002	-1.4217235E+001	2.907069396747102E+001	3.3100822E+000	-1.1506733E-003	4.3224928E-001	2.6072785E-002	1.000000000000000E+000	11	1.3226363E-001	3.5123943E-004	-1.115602587359111E-005	3.4468737E-004	2.5742641E-003	6.5221294E-004	2.6556011E-003	1.4217235E+001	-4.614012482272503E-007
3.5465955E+003	3.7221579E+002	9.5876076E+001	3.8436548E+002	-1.4444369E+001	3.008194844215177E+001	3.3100848E+000	-1.3567813E-004	4.6805647E-001	2.9122589E-002	1.000000000000000E+000	12	1.3416079E-001	3.4904483E-004	-1.185118204912255E-005	-1.3639758E-004	2.5194518E-003	6.4896530E-004	2.6016904E-003	1.4444369E+001	-6.951561755314400E-007
3.1610112E+003	3.7971796E+002	9.9073959E+001	3.9243008E+002	-1.4623290E+001	3.084170165158866E+001	3.3100896E+000	-1.5499900E-004	5.0819993E-001	3.2391351E-002	1.000000000000000E+000	12	1.3432573E-001	3.4229213E-004	-1.190736667159379E-005	4.2486819E-004	2.4656788E-003	6.4333162E-004	2.5482245E-003	1.4623290E+001	-5.618462247123905E-008
2.8172952E+003	3.8762241E+002	1.0222099E+002	4.0087436E+002	-1.4773294E+001	3.160196931436076E+001	3.3100843E+000	-1.6684152E-004	5.5264682E-001	3.5934474E-002	1.000000000000000E+000	12	1.3435543E-001	3.3515596E-004	-1.223700810889325E-005	-2.1657841E-004	2.4120833E-003	6.3609733E-004	2.4945473E-003	1.4773294E+001	-3.296414372994664E-007
2.5108032E+003	3.9601962E+002	1.0526400E+002	4.0977072E+002	-1.4885317E+001	3.236167671045405E+001	3.3100975E+000	-9.5918520E-005	6.0218173E-001	3.9737951E-002	1.000000000000000E+000	12	1.3430883E-001	3.2776580E-004	-1.233652554445952E-005	2.3964079E-005	2.3584943E-003	6.2689965E-004	2.4403890E-003	1.4885317E+001	-9.951743556626217E-008
2.2378516E+003	4.0477890E+002	1.0807326E+002	4.1895798E+002	-1.4948889E+001	3.312194034655113E+001	3.3100913E+000	-1.7685584E-004	6.5806776E-001	4.3789115E-002	1.000000000000000E+000	12	1.3419750E-001	3.2031257E-004	-1.216897221486902E-005	5.0504901E-004	2.3060937E-003	6.1571161E-004	2.3868743E-003	1.4948889E+001	1.675533295904941E-007
1.9956389E+003	4.1394012E+002	1.1063046E+002	4.2846881E+002	-1.4963258E+001	3.388170710264967E+001	3.3100891E+000	-1.5990433E-004	7.2088081E-001	4.8058972E-002	1.000000000000000E+000	12	1.3405202E-001	3.1286298E-004	-1.240942995400757E-005	1.8432573E-004	2.2547538E-003	6.0261000E-004	2.3338923E-003	1.4963258E+001	-2.404577391385422E-007
1.7782927E+003	4.2358881E+002	1.1290639E+002	4.3837808E+002	-1.4925024E+001	3.464196057873778E+001	3.3100870E+000	-1.6592826E-004	7.9268080E-001	5.2582078E-002	1.000000000000000E+000	12	1.3389143E-001	3.0542456E-004	-1.217688998031695E-005	4.2486819E-004	2.2041788E-003	5.8751757E-004	2.2811359E-003	1.4925024E+001	2.325399736906139E-007
1.5855076E+003	4.3354816E+002	1.1474403E+002	4.4847540E+002	-1.4824169E+001	3.540168042817822E+001	3.3100970E+000	-1.3472851E-004	8.7482601E-001	5.7267029E-002	1.000000000000000E+000	12	1.3371451E-001	2.9815349E-004	-1.222870853171844E-005	-2.1657841E-004	2.1555598E-003	5.7049631E-004	2.2297767E-003	1.4824169E+001	-5.181855140148868E-008
1.4118373E+003	4.4390466E+002	1.1620670E+002	4.5886310E+002	-1.4669865E+001	3.616119745085598E+001	3.3100801E+000	-1.6212418E-004	9.7007287E-001	6.2215757E-002	1.000000000000000E+000	12	1.3353667E-001	2.9101636E-004	-1.248345653201007E-005	5.8522983E-004	2.1082566E-003	5.5190572E-004	2.1792992E-003	1.4669865E+001	-2.547480002916308E-007
1.2587914E+003	4.5439578E+002	1.1708430E+002	4.6923795E+002	-1.4449117E+001	3.692095690031420E+001	3.3100855E+000	-1.6794272E-004	1.0798606E+000	6.7232430E-002	1.000000000000000E+000	12	1.3336712E-001	2.8422067E-004	-1.264035833473220E-005	2.3964079E-005	2.0637070E-003	5.3175603E-004	2.1311149E-003	1.4449117E+001	-1.569018027221325E-007
1.1217948E+003	4.6511053E+002	1.1745560E+002	4.7971204E+002	-1.4172736E+001	3.767841141627287E+001	3.3100889E+000	-1.5272565E-004	1.2079054E+000	7.2413445E-002	1.000000000000000E+000	12	1.3320808E-001	2.7768343E-004	-1.250121076937244E-005	-1.3639758E-004	2.0211334E-003	5.1040214E-004	2.0845840E-003	1.4172736E+001	1.391475653597609E-007
1.0003201E+003	4.7578717E+002	1.1722076E+002	4.9001443E+002	-1.3840449E+001	3.843766734571545E+001	3.3100867E+000	-1.8250871E-004	1.3573024E+000	7.7672623E-002	1.000000000000000E+000	12	1.3306384E-001	2.7155085E-004	-1.229074665501927E-005	2.6450655E-004	1.9815040E-003	4.8818762E-004	2.0407562E-003	1.3840449E+001	2.104641143531704E-007
8.9142657E+002	4.8657779E+002	1.1634627E+002	5.0029431E+002	-1.3447580E+001	3.919641340835369E+001	3.3100877E+000	-1.4692632E-004	1.5345538E+000	8.2991928E-002	1.000000000000000E+000	12	1.3293070E-001	2.6570499E-004	-1.209535655785617E-005	1.0414491E-004	1.9440218E-003	4.6483768E-004	1.9988234E-003	1.3447580E+001	1.953900971631011E-007
7.9423773E+002	4.9714105E+002	1.1486500E+002	5.1023837E+002	-1.3009951E+001	3.995595571113518E+001	3.3100886E+000	-2.0874884E-004	1.7445439E+000	8.8411979E-002	1.000000000000000E+000	12	1.3280708E-001	2.6028437E-004	-1.228994903374728E-005	-5.6216748E-005	1.9095603E-003	4.4120607E-004	1.9598682E-003	1.3009951E+001	-1.945924758911139E-007
7.0750946E+002	5.0758691E+002	1.1277948E+002	5.1996509E+002	-1.2526913E+001	4.071844833399518E+001	3.3100886E+000	-1.4241433E-004	1.9946091E+000	9.3836024E-002	1.000000000000000E+000	12	1.3269937E-001	2.5520823E-004	-1.214792894825627E-005	2.3964079E-005	1.8774227E-003	4.1713988E-004	1.9232060E-003	1.2526913E+001	1.420200854910144E-007
6.3100964E+002	5.1751245E+002	1.1021338E+002	5.2911823E+002	-1.2022531E+001	4.147641007669154E+001	3.3100917E+000	-1.6492492E-004	2.2884943E+000	9.9291712E-002	1.000000000000000E+000	12	1.3260722E-001	2.5061925E-004	-1.201285074022194E-005	2.6450655E-004	1.8484824E-003	3.9366685E-004	1.8899367E-003	1.2022531E+001	1.350782080343272E-007
5.6233929E+002	5.2709833E+002	1.0708714E+002	5.3786646E+002	-1.1484109E+001	4.223294480596087E+001	3.3100879E+000	-1.7404465E-004	2.6429222E+000	1.0476353E-001	1.000000000000000E+000	12	1.3252673E-001	2.4639338E-004	-1.213186656583599E-005	1.0414491E-004	1.8219763E-003	3.7015905E-004	1.8591975E-003	1.1484109E+001	-1.190158256140432E-007
5.0144415E+002	5.3612280E+002	1.0363261E+002	5.4604706E+002	-1.0940352E+001	4.299017804188770E+001	3.3100917E+000	-1.4213497E-004	3.0626764E+000	1.1031482E-001	1.000000000000000E+000	12	1.3245890E-001	2.4257781E-004	-1.197439867529950E-005	-5.6216748E-005	1.7980598E-003	3.4756522E-004	1.8313440E-003	1.0940352E+001	1.574678905364844E-007
4.4685895E+002	5.4460266E+002	9.9819443E+001	5.5367499E+002	-1.0386375E+001	4.374689903788385E+001	3.3100889E+000	-1.7708394E-004	3.5680797E+000	1.1597250E-001	1.000000000000000E+000	12	1.3239507E-001	2.3912055E-004	-1.220235329784595E-005	-2.1657841E-004	1.7765195E-003	3.2561566E-004	1.8061138E-003	1.0386375E+001	-2.279546225464507E-007
3.9808920E+002	5.5259113E+002	9.5741982E+001	5.6082391E+002	-9.8294888E+000	4.450969584745326E+001	3.3100955E+000	-1.7158230E-004	4.1757770E+000	1.2169958E-001	1.000000000000000E+000	12	1.3234869E-001	2.3598973E-004	-1.234478837675124E-005	-2.1657841E-004	1.7569154E-003	3.0440328E-004	1.7830909E-003	9.8294888E+000	-1.424350789052860E-007
3.5465955E+002	5.5993866E+002	9.1555931E+001	5.6737445E+002	-9.2862940E+000	4.526992239020183E+001	3.3100824E+000	-2.3058847E-004	4.9014211E+000	1.2763079E-001	1.000000000000000E+000	12	1.3230494E-001	2.3318805E-004	-1.239689875886365E-005	-2.1657841E-004	1.7394057E-003	2.8441136E-004	1.7625045E-003	9.2862940E+000	-5.211038211241024E-008
3.1631586E+002	5.6659277E+002	8.7434875E+001	5.7329944E+002	-8.7725115E+000	4.602591757278424E+001	3.3100858E+000	-1.5988923E-004	5.7545910E+000	1.3385075E-001	1.000000000000000E+000	12	1.3227293E-001	2.3072225E-004	-1.241791203645860E-005	3.4468737E-004	1.7238839E-003	2.6602452E-004	1.7442892E-003	8.7725115E+000	-2.101327759495094E-008
2.8189429E+002	5.7270819E+002	8.3276184E+001	5.7873102E+002	-8.2732649E+000	4.678140286196140E+001	3.3100877E+000	-1.5951625E-004	6.7797399E+000	1.4037867E-001	1.000000000000000E+000	12	1.3224189E-001	2.2850321E-004	-1.233524607545405E-005	2.3964079E-005	1.7099361E-003	2.4863787E-004	1.7279184E-003	8.2732649E+000	8.266596100454830E-008
2.5104436E+002	5.7830994E+002	7.9246689E+001	5.8371436E+002	-7.8027306E+000	4.753793487127405E+001	3.3100977E+000	-1.3752888E-004	7.9999733E+000	1.4745179E-001	1.000000000000000E+000	12	1.3221502E-001	2.2650637E-004	-1.257012307800728E-005	-5.6216748E-005	1.6973051E-003	2.3258429E-004	1.7131667E-003	7.8027306E+000	-2.348770025532255E-007
2.2392513E+002	5.8336176E+002	7.5458015E+001	5.8822174E+002	-7.3703027E+000	4.830072744084464E+001	3.3100953E+000	-1.4825221E-004	9.4191551E+000	1.5500316E-001	1.000000000000000E+000	12	1.3219367E-001	2.2473442E-004	-1.279819066454689E-005	2.6450655E-004	1.6859930E-003	2.1808370E-004	1.7000391E-003	7.3703027E+000	-2.280675865396112E-007
1.9955299E+002	5.8803040E+002	7.1842064E+001	5.9240277E+002	-6.9655380E+000	4.906118115692516E+001	3.3100939E+000	-1.4758090E-004	1.1101536E+001	1.6327004E-001	1.000000000000000E+000	12	1.3217679E-001	2.2311980E-004	-1.298467405920261E-005	2.3964079E-005	1.6755817E-003	2.0471263E-004	1.6880407E-003	6.9655380E+000	-1.864833946557258E-007
1.7778128E+002	5.9226434E+002	6.8514130E+001	5.9621411E+002	-6.5987406E+000	4.982825890000095E+001	3.3100920E+000	-9.7078468E-005	1.3066339E+001	1.7254792E-001	1.000000000000000E+000	12	1.3216102E-001	2.2166705E-004	-1.278990074559826E-005	2.3964079E-005	1.6661385E-003	1.9274169E-004	1.6772498E-003	6.5987406E+000	1.947733136043515E-007
1.5842838E+002	5.9623901E+002	6.5442825E+001	5.9981976E+002	-6.2636766E+000	5.059471600314282E+001	3.3100963E+000	-1.3767775E-004	1.5350592E+001	1.8272908E-001	1.000000000000000E+000	12	1.3215429E-001	2.2032333E-004	-1.291737074681118E-005	-5.6216748E-005	1.6572151E-003	1.8189491E-004	1.6671675E-003	6.2636766E+000	-1.274700012129169E-007
1.4131134E+002	5.9980365E+002	6.2678520E+001	6.0306964E+002	-5.9656653E+000	5.134788297224441E+001	3.3100886E+000	-1.2988267E-004	1.7969021E+001	1.9410062E-001	1.000000000000000E+000	12	1.3214228E-001	2.1911612E-004	-1.291459414287237E-005	1.0414491E-004	1.6492031E-003	1.7233909E-004	1.6581833E-003	5.9656653E+000	2.776603938804879E-009
1.2584569E+002	6.0319147E+002	6.0179371E+001	6.0618604E+002	-5.6974473E+000	5.210342730142293E+001	3.3100927E+000	-1.4010267E-004	2.1015230E+001	2.0711787E-001	1.000000000000000E+000	12	1.3213494E-001	2.1797755E-004	-1.294067869099813E-005	3.4468737E-004	1.6415092E-003	1.6377054E-004	1.6496585E-003	5.6974473E+000	-2.608454812575974E-008
1.1218996E+002	6.0639716E+002	5.8039383E+001	6.0916833E+002	-5.4672298E+000	5.284886411018670E+001	3.3100908E+000	-1.3918863E-004	2.4442373E+001	2.2187804E-001	1.000000000000000E+000	12	1.3213025E-001	2.1690270E-004	-1.289588831570048E-005	5.0504901E-004	1.6341145E-003	1.5640409E-004	1.6415823E-003	5.4672298E+000	4.479037529765532E-008
1.0003201E+002	6.0936877E+002	5.6192566E+001	6.1195416E+002	-5.2685947E+000	5.360868974629557E+001	3.3100884E+000	-1.5285856E-004	2.8314068E+001	2.3873836E-001	1.000000000000000E+000	12	1.3212456E-001	2.1590597E-004	-1.278643586277596E-005	2.6450655E-004	1.6272055E-003	1.5005174E-004	1.6341093E-003	5.2685947E+000	1.094524529245156E-007
8.9115974E+001	6.1221429E+002	5.4633175E+001	6.1464716E+002	-5.0994897E+000	5.437573340939707E+001	3.3100951E+000	-1.2257228E-004	3.2689487E+001	2.5826719E-001	1.000000000000000E+000	12	1.3211586E-001	2.1494586E-004	-1.275113763019019E-005	-2.1657841E-004	1.6205099E-003	1.4461212E-004	1.6269496E-003	5.0994897E+000	3.529823258577479E-008
7.9415527E+001	6.1499872E+002	5.3496349E+001	6.1732104E+002	-4.9714236E+000	5.514020597902709E+001	3.3100860E+000	-1.2602242E-004	3.7461964E+001	2.8133041E-001	1.000000000000000E+000	12	1.3211352E-001	2.1401104E-004	-1.285470282178479E-005	-2.1657841E-004	1.6138087E-003	1.4037895E-004	1.6199027E-003	4.9714236E+000	-1.035651915946000E-007
7.0838745E+001	6.1771460E+002	5.2485237E+001	6.1994037E+002	-4.8565745E+000	5.589139217467164E+001	3.3100924E+000	-1.4763686E-004	4.2806736E+001	3.0682209E-001	1.000000000000000E+000	12	1.3211186E-001	2.1310414E-004	-1.289410329617224E-005	3.4468737E-004	1.6072671E-003	1.3656435E-004	1.6130584E-003	4.8565745E+000	-3.940047438744793E-008
6.3082302E+001	6.2035962E+002	5.1808243E+001	6.2251923E+002	-4.7738781E+000	5.667185133177554E+001	3.3100898E+000	-1.1962569E-004	4.8698292E+001	3.3729193E-001	1.000000000000000E+000	12	1.3210589E-001	2.1221174E-004	-1.281170907066795E-005	3.4468737E-004	1.6008035E-003	1.3368827E-004	1.6063761E-003	4.7738781E+000	8.239422550428187E-008
5.6241817E+001	6.2298334E+002	5.1299213E+001	6.2509186E+002	-4.7073684E+000	5.741634696713299E+001	3.3100965E+000	-7.1883602E-005	5.5163284E+001	3.7152138E-001	1.000000000000000E+000	12	1.3210574E-001	2.1133812E-004	-1.295874870211103E-005	-1.3639758E-004	1.5943686E-003	1.3128739E-004	1.5997649E-003	4.7073684E+000	-1.470396314430727E-007
5.0144413E+001	6.2559589E+002	5.1221725E+001	6.2768933E+002	-4.6807485E+000	5.817319737639627E+001	3.3100953E+000	-7.6545970E-005	6.1964558E+001	4.1263139E-001	1.000000000000000E+000	12	1.3210201E-001	2.1045764E-004	-1.308041154805606E-005	-3.7694006E-004	1.5878315E-003	1.3000640E-004	1.5931448E-003	4.6807485E+000	-1.216628459450370E-007
4.4671219E+001	6.2829413E+002	5.1330853E+001	6.3038745E+002	-4.6706214E+000	5.893721826598630E+001	3.3101001E+000	-1.0362465E-004	6.9408691E+001	4.6020961E-001	1.000000000000000E+000	12	1.3209927E-001	2.0955251E-004	-1.299901152140390E-005	3.4468737E-004	1.5810583E-003	1.2917051E-004	1.5863260E-003	4.6706214E+000	8.140002665216673E-008
3.9808922E+001	6.3098102E+002	5.1703003E+001	6.3309576E+002	-4.6843886E+000	5.969973046226369E+001	3.3100994E+000	-9.3572620E-005	7.7325714E+001	5.1572323E-001	1.000000000000000E+000	12	1.3210015E-001	2.0865745E-004	-1.317647192443918E-005	-5.6216748E-005	1.5742637E-003	1.2899621E-004	1.5795399E-003	4.6843886E+000	-1.774604030352849E-007
3.5465305E+001	6.3363934E+002	5.2255856E+001	6.3579047E+002	-4.7144794E+000	6.045012351122568E+001	3.3100939E+000	-1.3318373E-004	8.5877914E+001	5.8012742E-001	1.000000000000000E+000	12	1.3209206E-001	2.0776037E-004	-1.288205391971294E-005	-2.1657841E-004	1.5675238E-003	1.2927274E-004	1.5728453E-003	4.7144794E+000	2.944180047262416E-007
3.1629551E+001	6.3647748E+002	5.3067425E+001	6.3868591E+002	-4.7661123E+000	6.117445226557902E+001	3.3100982E+000	-8.0592850E-005	9.4819809E+001	6.5460670E-001	1.000000000000000E+000	12	1.3209571E-001	2.0682420E-004	-1.298609035225187E-005	1.0414491E-004	1.5603008E-003	1.3009283E-004	1.5657148E-003	4.7661123E+000	-1.040364325389325E-007
2.8170074E+001	6.3940320E+002	5.4176144E+001	6.4169427E+002	-4.8430600E+000	6.197976302390452E+001	3.3100929E+000	-5.2246203E-005	1.0428553E+002	7.4333382E-001	1.000000000000000E+000	12	1.3209188E-001	2.0584861E-004	-1.354434848593812E-005	-2.9675924E-004	1.5528107E-003	1.3156845E-004	1.5583745E-003	4.8430600E+000	-5.582581336862456E-007
2.5104435E+001	6.4234589E+002	5.5505299E+001	6.4473956E+002	-4.9386778E+000	6.273593511313084E+001	3.3100867E+000	-1.1716413E-004	1.1421818E+002	8.4651667E-001	1.000000000000000E+000	12	1.3209720E-001	2.0488458E-004	-1.366015269630874E-005	-5.6216748E-005	1.5452557E-003	1.3352600E-004	1.5510139E-003	4.9386778E+000	-1.158042103706214E-007
2.2385387E+001	6.4543762E+002	5.7096115E+001	6.4795807E+002	-5.0552883E+000	6.342244266570196E+001	3.3100917E+000	-1.4420552E-004	1.2452283E+002	9.6687043E-001	1.000000000000000E+000	12	1.3209592E-001	2.0386493E-004	-1.303912994154234E-005	-3.7694006E-004	1.5373065E-003	1.3599181E-004	1.5433098E-003	5.0552883E+000	6.210227547663986E-007
1.9955299E+001	6.4860303E+002	5.8896488E+001	6.5127161E+002	-5.1885214E+000	6.418422304859268E+001	3.3100932E+000	-6.0116054E-005	1.3541678E+002	1.1074573E+000	1.000000000000000E+000	12	1.3209189E-001	2.0282152E-004	-1.307222305292493E-005	1.8432573E-004	1.5291662E-003	1.3885614E-004	1.5354577E-003	5.1885214E+000	-3.309311138259022E-008
1.7796129E+001	6.5191699E+002	6.0955994E+001	6.5476056E+002	-5.3417788E+000	6.502854175530956E+001	3.3100877E+000	-1.0667378E-004	1.4671623E+002	1.2715867E+000	1.000000000000000E+000	12	1.3209586E-001	2.0174682E-004	-1.299000961549043E-005	-1.3639758E-004	1.5206430E-003	1.4218423E-004	1.5272759E-003	5.3417788E+000	8.221343743449843E-008
1.5857576E+001	6.5534796E+002	6.3201015E+001	6.5838843E+002	-5.5085049E+000	6.575094317633193E+001	3.3100843E+000	-1.0183445E-004	1.5880321E+002	1.4633324E+000	1.000000000000000E+000	12	1.3208929E-001	2.0062516E-004	-1.369679402581985E-005	2.3964079E-005	1.5118461E-003	1.4580072E-004	1.5188602E-003	5.5085049E+000	-7.067844103294185E-007
1.4118974E+001	6.5901044E+002	6.5752296E+001	6.6228253E+002	-5.6977882E+000	6.655325270773028E+001	3.3100884E+000	-1.0782089E-004	1.7143761E+002	1.6898234E+000	1.000000000000000E+000	12	1.3209134E-001	1.9944862E-004	-1.280930802065106E-005	-5.6216748E-005	1.5024696E-003	1.4990784E-004	1.5099297E-003	5.6977882E+000	8.874860051687894E-007
1.2600808E+001	6.6282062E+002	6.8500549E+001	6.6635089E+002	-5.9004025E+000	6.744383709675458E+001	3.3100898E+000	-7.7282821E-005	1.8438589E+002	1.9485422E+000	1.000000000000000E+000	12	1.3208976E-001	1.9822853E-004	-1.305344440002470E-005	2.6450655E-004	1.4927603E-003	1.5427236E-004	1.5007108E-003	5.9004025E+000	-2.441363793736346E-007
1.1224856E+001	6.6684631E+002	7.1624687E+001	6.7068182E+002	-6.1305270E+000	6.812791504923371E+001	3.3100915E+000	-3.4100409E-005	1.9795961E+002	2.2577143E+000	1.000000000000000E+000	12	1.3209094E-001	1.9695023E-004	-1.290745871519822E-005	1.8432573E-004	1.4824931E-003	1.5923174E-004	1.4910200E-003	6.1305270E+000	1.459856848264790E-007
1.0003201E+001	6.7112860E+002	7.4894440E+001	6.7529456E+002	-6.3675637E+000	6.888866727206187E+001	3.3100958E+000	-8.1407406E-006	2.1243770E+002	2.6130290E+000	1.000000000000000E+000	12	1.3209641E-001	1.9561303E-004	-1.433754701480292E-005	2.6450655E-004	1.4716998E-003	1.6423399E-004	1.4808353E-003	6.3675637E+000	-1.430088299604702E-006
8.9183798E+000	6.7552985E+002	7.8435806E+001	6.8006818E+002	-6.6229601E+000	6.973301869881107E+001	3.3100877E+000	-1.4162262E-004	2.2752011E+002	3.0265207E+000	1.000000000000000E+000	12	1.3209033E-001	1.9423100E-004	-1.251005142715672E-005	2.3964079E-005	1.4606280E-003	1.6959361E-004	1.4704408E-003	6.6229601E+000	1.827495587646202E-006
7.9395342E+000	6.8036475E+002	8.2318886E+001	6.8532660E+002	-6.8988137E+000	7.067169789008040E+001	3.3100901E+000	-4.6959289E-005	2.4351495E+002	3.5134149E+000	1.000000000000000E+000	12	1.3209236E-001	1.9274365E-004	-1.451895339030105E-005	-2.1657841E-004	1.4485937E-003	1.7526867E-004	1.4591583E-003	6.8988137E+000	-2.008901963144328E-006
7.0765405E+000	6.8514191E+002	8.6419060E+001	6.9057056E+002	-7.1889296E+000	7.123001908991137E+001	3.3100724E+000	-2.3499034E-004	2.6024933E+002	4.0756097E+000	1.000000000000000E+000	12	1.3208833E-001	1.9127420E-004	-1.448825338528534E-005	-1.3639758E-004	1.4366945E-003	1.8121471E-004	1.4480780E-003	7.1889296E+000	3.070000501571023E-008
6.3105822E+000	6.9036670E+002	9.0761024E+001	6.9630719E+002	-7.4896002E+000	7.185017749268445E+001	3.3100648E+000	-2.4526592E-004	2.7787616E+002	4.7211556E+000	1.000000000000000E+000	12	1.3209882E-001	1.8971344E-004	-1.393106673178894E-005	-5.6216748E-005	1.4238952E-003	1.8719645E-004	1.4361477E-003	7.4896002E+000	5.571866534964004E-007
5.6205034E+000	6.9599341E+002	9.5605972E+001	7.0252924E+002	-7.8215528E+000	7.253664229866627E+001	3.3100817E+000	-2.3336786E-004	2.9618286E+002	5.4853096E+000	1.000000000000000E+000	12	1.3209376E-001	1.8802600E-004	-1.262109982402196E-005	1.8432573E-004	1.4101857E-003	1.9371186E-004	1.4234283E-003	7.8215528E+000	1.309966907766971E-006
5.0144415E+000	7.0201135E+002	1.0031768E+002	7.0914282E+002	-8.1325293E+000	7.329420212129480E+001	3.3100691E+000	-1.8565772E-005	3.1638806E+002	6.3315148E+000	1.000000000000000E+000	12	1.3208124E-001	1.8625478E-004	-1.148988786233814E-005	2.6450655E-004	1.3959720E-003	1.9948492E-004	1.4101532E-003	8.1325293E+000	1.131211961683827E-006
4.4693937E+000	7.0794739E+002	1.0557997E+002	7.1577692E+002	-8.4823084E+000	7.413551128123072E+001	3.3100934E+000	8.4462095E-005	3.3727951E+002	7.3383374E+000	1.000000000000000E+000	12	1.3209015E-001	1.8454094E-004	-1.314911348143344E-005	-3.7694006E-004	1.3818012E-003	2.0607541E-004	1.3970833E-003	8.4823084E+000	-1.659225619095298E-006
3.9778514E+000	7.1494659E+002	1.1139365E+002	7.2357251E+002	-8.8558769E+000	7.507216377902660E+001	3.3100841E+000	-6.0442944E-005	3.5917917E+002	8.5127106E+000	1.000000000000000E+000	12	1.3208979E-001	1.8255225E-004	-1.543052085830317E-005	-5.6216748E-005	1.3655559E-003	2.1276309E-004	1.3820315E-003	8.8558769E+000	-2.281407376869738E-006
3.5511365E+000	7.2151160E+002	1.1705882E+002	7.3094580E+002	-9.2154322E+000	7.611343062852393E+001	3.3100898E+000	-2.9628127E-004	3.8286758E+002	9.8194370E+000	1.000000000000000E+000	12	1.3209215E-001	1.8071401E-004	-1.257571874545425E-005	1.0414491E-004	1.3504328E-003	2.1909567E-004	1.3680905E-003	9.2154322E+000	2.854802112848926E-006
3.1603966E+000	7.2947125E+002	1.2343157E+002	7.3984027E+002	-9.6038752E+000	7.727623143038363E+001	3.3101020E+000	-2.1172514E-006	4.0799261E+002	1.1356091E+001	1.000000000000000E+000	12	1.3209218E-001	1.7854148E-004	-1.141800680820193E-005	-2.1657841E-004	1.3326996E-003	2.2550196E-004	1.3516431E-003	9.6038752E+000	1.157711937252316E-006
2.8183618E+000	7.3705170E+002	1.3009921E+002	7.4844574E+002	-1.0010337E+001	7.857163263864641E+001	3.3101010E+000	4.5810215E-005	4.3405896E+002	1.3115275E+001	1.000000000000000E+000	12	1.3209021E-001	1.7648602E-004	-1.613407959796556E-005	-1.3639758E-004	1.3157619E-003	2.3224911E-004	1.3361023E-003	1.0010337E+001	-4.716072789763632E-006
2.5136740E+000	7.4539386E+002	1.3667422E+002	7.5782043E+002	-1.0390247E+001	8.001572993388982E+001	3.3100955E+000	-1.3131429E-004	4.6325974E+002	1.5068332E+001	1.000000000000000E+000	12	1.3209024E-001	1.7430283E-004	-1.180628066341483E-005	2.3964079E-005	1.2979357E-003	2.3798742E-004	1.3195738E-003	1.0390247E+001	4.327798934550732E-006
2.2398219E+000	7.5442133E+002	1.4391148E+002	7.6802478E+002	-1.0799848E+001	8.163034851718112E+001	3.3101027E+000	8.0372101E-006	4.9375464E+002	1.7336109E+001	1.000000000000000E+000	12	1.3209249E-001	1.7198989E-004	-1.251875642846587E-005	-2.1657841E-004	1.2789792E-003	2.4397482E-004	1.3020413E-003	1.0799848E+001	-7.124757650510427E-007
1.9970604E+000	7.6375293E+002	1.5170558E+002	7.7867395E+002	-1.1234532E+001	8.343373542957124E+001	3.3100998E+000	-3.9285205E-005	5.2532410E+002	1.9939726E+001	1.000000000000000E+000	12	1.3209207E-001	1.6963721E-004	-1.647329412437749E-005	-5.6216748E-005	1.2596260E-003	2.5020170E-004	1.2842346E-003	1.1234532E+001	-3.954537695911618E-006
1.7796129E+000	7.7342914E+002	1.5968015E+002	7.8974072E+002	-1.1665236E+001	8.545190323208226E+001	3.3101006E+000	-1.2275831E-004	5.6007172E+002	2.2896887E+001	1.000000000000000E+000	12	1.3208915E-001	1.6725635E-004	-9.139211190585482E-006	5.0504901E-004	1.2400851E-003	2.5602471E-004	1.2662384E-003	1.1665236E+001	7.334082933792010E-006
1.5846854E+000	7.8388495E+002	1.6792079E+002	8.0166888E+002	-1.2090945E+001	8.771107869938714E+001	3.3101122E+000	8.6530694E-005	5.9809833E+002	2.6241671E+001	1.000000000000000E+000	12	1.3208753E-001	1.6476569E-004	-1.764710679302597E-005	3.4468737E-004	1.2197259E-003	2.6128496E-004	1.2473977E-003	1.2090945E+001	-8.507895602440484E-006
1.4122382E+000	7.9508472E+002	1.7656113E+002	8.1445288E+002	-1.2520267E+001	9.024010313951294E+001	3.3101096E+000	-1.6091755E-004	6.3828851E+002	2.9996826E+001	1.000000000000000E+000	12	1.3209002E-001	1.6218252E-004	-1.039671951412877E-005	-1.3639758E-004	1.1986198E-003	2.6617246E-004	1.2278181E-003	1.2520267E+001	7.250387278897201E-006
1.2596743E+000	8.0688824E+002	1.8559564E+002	8.2795795E+002	-1.2953529E+001	9.306907324719941E+001	3.3101137E+000	3.0941021E-005	6.8076007E+002	3.4206848E+001	1.000000000000000E+000	12	1.3208805E-001	1.5953473E-004	-1.467582064025676E-005	-2.9675924E-004	1.1770552E-003	2.7073923E-004	1.2077908E-003	1.2953529E+001	-4.279101126127999E-006
1.1224856E+000	8.1934784E+002	1.9525639E+002	8.4229205E+002	-1.3403984E+001	9.623714734436362E+001	3.3101103E+000	-5.7822890E-005	7.2616296E+002	3.9022869E+001	1.000000000000000E+000	12	1.3209076E-001	1.5682299E-004	-1.451746203165951E-005	1.8432573E-004	1.1548960E-003	2.7521991E-004	1.1872366E-003	1.3403984E+001	1.583586085972555E-007
1.0000638E+000	8.3246619E+002	2.0528850E+002	8.5740497E+002	-1.3852902E+001	9.978630393955973E+001	3.3101120E+000	-1.6096954E-005	7.7522510E+002	4.4441128E+001	1.000000000000000E+000	12	1.3209146E-001	1.5405960E-004	-1.022842066176802E-005	-1.3639758E-004	1.1323863E-003	2.7924965E-004	1.1663100E-003	1.3852902E+001	4.289041369891493E-006