EC-Lab ASCII FILE
Nb header lines : 60                          

Potentio Electrochemical Impedance Spectroscopy

Run on channel : 5 (SN 41380)
User : 
CE vs. WE compliance from -10 V to 10 V
Electrode connection : standard
Ewe ctrl range : min = -10.00 V, max = 10.00 V
Acquisition started on : 12/03/2020 16:53:50
Technique started on : 12/03/2020 16:53:51
Saved on :
	File : DE_206_5_30.mpr
	Directory : P:\Chemistry\Data\VMP3\Kyler\DOE\DE_206\
	Host : 10.0.4.64
Device : VMP3 (SN 1432)
Address : USB
EC-Lab for windows v11.33 (software)
Internet server v11.32 (firmware)
Command interpretor v11.33 (firmware)
Electrode material : 
Initial state : 
Electrolyte : 
Comments : 
Electrode surface area : 0.001 cm²
Characteristic mass : 0.001 g
Equivalent Weight : 0.000 g/eq.
Density : 0.000 g/cm3
Record Analogic IN 1
Cycle Definition : Charge/Discharge alternance
Mode                Single sine         
E (V)               0.0000              
vs.                 Eoc                 
tE (h:m:s)          0:00:0.0000         
record              0                   
dI                  1.000               
unit dI             mA                  
dt (s)              0.000               
fi                  1.000               
unit fi             MHz                 
ff                  1.000               
unit ff             Hz                  
Nd                  20                  
Points              per decade          
spacing             Logarithmic         
Va (mV)             128.0               
pw                  0.50                
Na                  3                   
corr                0                   
E range min (V)     -10.000             
E range max (V)     10.000              
I Range             Auto                
Bandwidth           5                   
nc cycles           0                   
goto Ns'            0                   
nr cycles           0                   
inc. cycle          1                   

freq/Hz	Re(Z)/Ohm	-Im(Z)/Ohm	|Z|/Ohm	Phase(Z)/deg	time/s	<Ewe>/V	<I>/mA	Cs/µF	Cp/µF	cycle number	I Range	|Ewe|/V	|I|/A	(Q-Qo)/mA.h	Analog IN 1/V	Re(Y)/Ohm-1	Im(Y)/Ohm-1	|Y|/Ohm-1	Phase(Y)/deg	dq/mA.h	
1.0000186E+006	6.7449059E+001	1.9226381E+001	7.0135788E+001	-1.5910224E+001	1.645472104806686E+000	3.3218462E+000	2.2373847E-003	8.2777925E-003	6.2205712E-004	1.000000000000000E+000	11	4.1873357E-004	5.9703266E-006	1.001016071086067E-006	8.6577918E-004	1.3711864E-002	3.9085727E-003	1.4258056E-002	1.5910224E+001	1.001016071086067E-006
8.9124669E+005	6.9618919E+001	1.7801508E+001	7.1858803E+001	-1.4343165E+001	2.241486213082680E+000	3.3212547E+000	-5.6309585E-004	1.0031490E-002	6.1562896E-004	1.000000000000000E+000	11	8.5683825E-004	1.1923915E-005	8.590780479995980E-007	1.5868786E-003	1.3482404E-002	3.4474409E-003	1.3916180E-002	1.4343165E+001	-1.419380230864690E-007
7.9433269E+005	7.2413742E+001	1.6578770E+001	7.4287315E+001	-1.2895346E+001	2.836472401366336E+000	3.3209398E+000	-1.6651781E-003	1.2085522E-002	6.0192263E-004	1.000000000000000E+000	11	1.2443026E-003	1.6749866E-005	6.148346070626253E-007	1.4266343E-003	1.3121746E-002	3.0041593E-003	1.3461248E-002	1.2895346E+001	-2.442434409369728E-007
7.0794981E+005	7.4769592E+001	1.6596508E+001	7.6589401E+001	-1.2514963E+001	3.432498109672451E+000	3.3207612E+000	-2.2717610E-003	1.3545684E-002	6.3605845E-004	1.000000000000000E+000	11	1.3341755E-003	1.7419845E-005	5.962324117192313E-008	1.3465121E-003	1.2746404E-002	2.8293023E-003	1.3056637E-002	1.2514963E+001	-5.552113658907022E-007
6.3095681E+005	7.6986633E+001	1.5870490E+001	7.8605431E+001	-1.1648128E+001	4.028486297960626E+000	3.3206768E+000	-2.5419141E-003	1.5893890E-002	6.4789667E-004	1.000000000000000E+000	11	8.6133997E-004	1.0957767E-005	-1.348118440259390E-007	1.1862677E-003	1.2459775E-002	2.5685334E-003	1.2721768E-002	1.1648128E+001	-1.944350851978622E-007
5.6234225E+005	7.8808022E+001	1.5805474E+001	8.0377342E+001	-1.1340598E+001	4.624487392982701E+000	3.3205931E+000	-2.8466054E-003	1.7906548E-002	6.9240417E-004	1.000000000000000E+000	11	3.9665881E-004	4.9349583E-006	-3.187752147172836E-007	1.1061456E-003	1.2198407E-002	2.4464722E-003	1.2441317E-002	1.1340598E+001	-1.839633706913446E-007
5.0120619E+005	8.1141937E+001	1.5904194E+001	8.2685898E+001	-1.1089649E+001	5.221486727969022E+000	3.3205647E+000	-2.8736752E-003	1.9966045E-002	7.3867344E-004	1.000000000000000E+000	11	2.6107405E-003	3.1574193E-005	-1.067639745837369E-006	2.0676113E-003	1.1868135E-002	2.3262091E-003	1.2093960E-002	1.1089649E+001	-7.488645311200848E-007
4.4668572E+005	8.2943901E+001	1.5551916E+001	8.4389290E+001	-1.0619613E+001	5.816477102896897E+000	3.3205404E+000	-2.9420063E-003	2.2910478E-002	7.7808544E-004	1.000000000000000E+000	11	5.8814208E-003	6.9693924E-005	-1.119778827586237E-006	1.1061456E-003	1.1646884E-002	2.1837819E-003	1.1849845E-002	1.0619613E+001	-5.213908174886870E-008
3.9810347E+005	8.4481171E+001	1.5353191E+001	8.5864944E+001	-1.0300237E+001	6.411472571169725E+000	3.3205144E+000	-3.0392744E-003	2.6039073E-002	8.3251309E-004	1.000000000000000E+000	11	1.0224553E-002	1.1907715E-004	-1.809962903094452E-006	1.4266343E-003	1.1458510E-002	2.0824131E-003	1.1646196E-002	1.0300237E+001	-6.901840755082148E-007
3.5480997E+005	8.6016739E+001	1.4993366E+001	8.7313690E+001	-9.8877449E+000	7.007479772815714E+000	3.3204718E+000	-3.2732042E-003	2.9917492E-002	8.8218320E-004	1.000000000000000E+000	11	1.5698770E-002	1.7979735E-004	-2.248314283713828E-006	1.3465121E-003	1.1282837E-002	1.9666834E-003	1.1452958E-002	9.8877449E+000	-4.383513806193756E-007
3.1622997E+005	8.7418236E+001	1.4663802E+001	8.8639580E+001	-9.5223179E+000	7.603484681138070E+000	3.3204358E+000	-3.3437745E-003	3.4321837E-002	9.3930867E-004	1.000000000000000E+000	11	2.2288077E-002	2.5144609E-004	-3.149296852889367E-006	1.1862677E-003	1.1126195E-002	1.8663420E-003	1.1281642E-002	9.5223179E+000	-9.009825691755397E-007
2.8183453E+005	8.8670723E+001	1.4282612E+001	8.9813644E+001	-9.1503067E+000	8.199492789426586E+000	3.3203988E+000	-3.2857112E-003	3.9538324E-002	9.9988235E-004	1.000000000000000E+000	11	2.9954970E-002	3.3352361E-004	-3.841556543523135E-006	1.2663900E-003	1.0992479E-002	1.7706103E-003	1.1134165E-002	9.1503067E+000	-6.922596906337681E-007
2.5118764E+005	8.9835457E+001	1.3865609E+001	9.0899200E+001	-8.7740536E+000	8.794476871000370E+000	3.3203342E+000	-3.5763998E-003	4.5696497E-002	1.0632629E-003	1.000000000000000E+000	11	3.8795643E-002	4.2679851E-004	-4.931100585417071E-006	1.3465121E-003	1.0872456E-002	1.6781038E-003	1.1001197E-002	8.7740536E+000	-1.089544041893936E-006
2.2387173E+005	9.0921974E+001	1.3477527E+001	9.1915443E+001	-8.4316587E+000	9.389496259303996E+000	3.3203545E+000	-3.3489948E-003	5.2748568E-002	1.1341071E-003	1.000000000000000E+000	11	4.8685413E-002	5.2967609E-004	-4.904937588528911E-006	1.2663900E-003	1.0761972E-002	1.5952664E-003	1.0879564E-002	8.4316587E+000	2.616299688816051E-008
1.9954350E+005	9.1938988E+001	1.3075911E+001	9.2864182E+001	-8.0945368E+000	9.985474954271922E+000	3.3203166E+000	-3.2926097E-003	6.0997296E-002	1.2093667E-003	1.000000000000000E+000	11	5.9649542E-002	6.4233097E-004	-4.393189714649149E-006	1.5067564E-003	1.0661130E-002	1.5162664E-003	1.0768414E-002	8.0945368E+000	5.117478738797623E-007
1.7783180E+005	9.2880135E+001	1.2688210E+001	9.3742790E+001	-7.7789359E+000	1.058148975591757E+001	3.3202701E+000	-3.6749656E-003	7.0535921E-002	1.2922167E-003	1.000000000000000E+000	11	7.1610451E-002	7.6390355E-004	-4.109619383388134E-006	1.3465121E-003	1.0569321E-002	1.4438585E-003	1.0667487E-002	7.7789359E+000	2.835703312610142E-007
1.5848613E+005	9.3800972E+001	1.2323850E+001	9.4607079E+001	-7.4848194E+000	1.117647911750828E+001	3.3203232E+000	-3.1299915E-003	8.1485905E-002	1.3827002E-003	1.000000000000000E+000	11	8.4472649E-002	8.9287874E-004	-4.925600862285743E-006	1.5067564E-003	1.0479971E-002	1.3768895E-003	1.0570033E-002	7.4848194E+000	-8.159814788976087E-007
1.4125594E+005	9.4653854E+001	1.1955519E+001	9.5405907E+001	-7.1987820E+000	1.177149338574964E+001	3.3202634E+000	-3.6176473E-003	9.4242103E-002	1.4798964E-003	1.000000000000000E+000	11	9.8303996E-002	1.0303764E-003	-6.572662736024035E-006	1.2663900E-003	1.0398909E-002	1.3134632E-003	1.0481532E-002	7.1987820E+000	-1.647061873738292E-006
1.2590930E+005	9.5471642E+001	1.1602068E+001	9.6174019E+001	-6.9288206E+000	1.236747642737464E+001	3.3202674E+000	-3.5175702E-003	1.0894992E-001	1.5855583E-003	1.000000000000000E+000	11	1.1309058E-001	1.1758953E-003	-6.047104439458861E-006	1.2663900E-003	1.0321882E-002	1.2543533E-003	1.0397819E-002	6.9288206E+000	5.255582965651734E-007
1.1220494E+005	9.6242287E+001	1.1269554E+001	9.6899849E+001	-6.6786733E+000	1.282749628924648E+001	3.3203785E+000	-2.4145476E-003	1.2586397E-001	1.7024277E-003	1.000000000000000E+000	11	1.2906788E-001	1.3319720E-003	-7.170521792244270E-006	1.1061456E-003	1.0249902E-002	1.2002190E-003	1.0319933E-002	6.6786733E+000	-1.123417352785408E-006
1.0000371E+005	9.7001854E+001	1.0944691E+001	9.7617348E+001	-6.4374404E+000	1.342349082420697E+001	3.3202894E+000	-3.2517046E-003	1.4541209E-001	1.8279044E-003	1.000000000000000E+000	11	1.2955654E-001	1.3271876E-003	-5.709462796215020E-006	1.6670007E-003	1.0179491E-002	1.1485489E-003	1.0244081E-002	6.4374404E+000	1.461058996029250E-006
8.9129305E+004	9.7713768E+001	1.0646365E+001	9.8292046E+001	-6.2181110E+000	1.401847967915819E+001	3.3203106E+000	-3.1045857E-003	1.6772518E-001	1.9677242E-003	1.000000000000000E+000	11	1.2977046E-001	1.3202539E-003	-7.300264095861671E-006	1.0260234E-003	1.0113909E-002	1.1019569E-003	1.0173763E-002	6.2181110E+000	-1.590801299646652E-006
7.9433273E+004	9.8389267E+001	1.0362481E+001	9.8933456E+001	-6.0122986E+000	1.461448981412104E+001	3.3203051E+000	-3.3351604E-003	1.9335435E-001	2.1212657E-003	1.000000000000000E+000	11	1.2970433E-001	1.3110259E-003	-8.358195995886086E-006	1.5868786E-003	1.0052205E-002	1.0587110E-003	1.0107804E-002	6.0122986E+000	-1.057931900024415E-006
7.0794977E+004	9.9039574E+001	1.0101933E+001	9.9553436E+001	-5.8239684E+000	1.521048186908592E+001	3.3203478E+000	-2.8458242E-003	2.2254260E-001	2.2914463E-003	1.000000000000000E+000	11	1.2972173E-001	1.3030362E-003	-1.160158129061650E-005	7.8565703E-004	9.9930093E-003	1.0192764E-003	1.0044857E-002	5.8239684E+000	-3.243385294730412E-006
6.3093828E+004	9.9653183E+001	9.8667727E+000	1.0014045E+002	-5.6544900E+000	1.580647395076812E+001	3.3203254E+000	-3.1200848E-003	2.5565726E-001	2.4819286E-003	1.000000000000000E+000	11	1.2955244E-001	1.2937074E-003	-1.103712623805687E-005	1.1862677E-003	9.9373851E-003	9.8391157E-004	9.9859750E-003	5.6544900E+000	5.644550525596256E-007
5.6237012E+004	1.0024445E+002	9.6672211E+000	1.0070951E+002	-5.5083690E+000	1.640149488564930E+001	3.3203461E+000	-3.0338324E-003	2.9274955E-001	2.6974822E-003	1.000000000000000E+000	11	1.2941577E-001	1.2850402E-003	-1.255926092106125E-005	1.8272450E-003	9.8836962E-003	9.5314876E-004	9.9295489E-003	5.5083690E+000	-1.522134683004373E-006
5.0122477E+004	1.0080064E+002	9.4969826E+000	1.0124703E+002	-5.3822627E+000	1.699748947398621E+001	3.3203528E+000	-2.9333881E-003	3.3435050E-001	2.9417695E-003	1.000000000000000E+000	11	1.2936339E-001	1.2777005E-003	-1.391310914221685E-005	1.0260234E-003	9.8332856E-003	9.2644797E-004	9.8768324E-003	5.3822627E+000	-1.353848221155608E-006
4.4666715E+004	1.0134631E+002	9.3542595E+000	1.0177709E+002	-5.2734561E+000	1.745749242915190E+001	3.3203707E+000	-2.8342458E-003	3.8091379E-001	3.2176992E-003	1.000000000000000E+000	11	1.4071363E-001	1.3825669E-003	-1.495999664594678E-005	1.4266343E-003	9.7838063E-003	9.0304483E-004	9.8253936E-003	5.2734561E+000	-1.046887503729926E-006
3.9814063E+004	1.0186578E+002	9.2485962E+000	1.0228477E+002	-5.1877737E+000	1.805449797751498E+001	3.3203416E+000	-3.1770323E-003	4.3222293E-001	3.5337636E-003	1.000000000000000E+000	11	1.3045633E-001	1.2754228E-003	-1.576958849378732E-005	1.0260234E-003	9.7365780E-003	8.8400318E-004	9.7766258E-003	5.1877737E+000	-8.095918478405426E-007
3.5480996E+004	1.0238139E+002	9.1810837E+000	1.0279223E+002	-5.1243100E+000	1.851349218600080E+001	3.3203659E+000	-3.0566049E-003	4.8857403E-001	3.8976041E-003	1.000000000000000E+000	11	1.4001343E-001	1.3621013E-003	-1.689703547483077E-005	1.5868786E-003	9.6894801E-003	8.6890714E-004	9.7283619E-003	5.1243100E+000	-1.127446981043451E-006
3.1621143E+004	1.0288284E+002	9.1560583E+000	1.0328946E+002	-5.0856400E+000	1.910849221426179E+001	3.3203688E+000	-2.8695406E-003	5.4971051E-001	4.3195561E-003	1.000000000000000E+000	11	1.3010851E-001	1.2596494E-003	-1.587241920508030E-005	1.6670007E-003	9.6434169E-003	8.5821591E-004	9.6815303E-003	5.0856400E+000	1.024616269750470E-006
2.8188096E+004	1.0337501E+002	9.1731977E+000	1.0378121E+002	-5.0709786E+000	1.956849223611061E+001	3.3203797E+000	-2.8669205E-003	6.1550790E-001	4.8088105E-003	1.000000000000000E+000	11	1.3760605E-001	1.3259245E-003	-1.640942246540605E-005	9.4590132E-004	9.5979413E-003	8.5169339E-004	9.6356552E-003	5.0709786E+000	-5.370032603257440E-007
2.5116910E+004	1.0386488E+002	9.2199841E+000	1.0427331E+002	-5.0727935E+000	2.016448495772784E+001	3.3203750E+000	-2.9259273E-003	6.8726426E-001	5.3732591E-003	1.000000000000000E+000	11	1.2962700E-001	1.2431466E-003	-1.866648662874811E-005	1.3465121E-003	9.5526194E-003	8.4797660E-004	9.5901825E-003	5.0727935E+000	-2.257064163342068E-006
2.2389027E+004	1.0435826E+002	9.3163691E+000	1.0477328E+002	-5.1014395E+000	2.062349431289476E+001	3.3203762E+000	-2.9753963E-003	7.6302409E-001	6.0329605E-003	1.000000000000000E+000	11	1.3525063E-001	1.2908885E-003	-1.807838860787969E-005	7.8565703E-004	9.5066112E-003	8.4868318E-004	9.5444182E-003	5.1014395E+000	5.880980208684285E-007
1.9948783E+004	1.0485580E+002	9.4609709E+000	1.0528176E+002	-5.1557450E+000	2.108247542797471E+001	3.3203762E+000	-3.0293497E-003	8.4327263E-001	6.8097813E-003	1.000000000000000E+000	11	1.4022982E-001	1.3319479E-003	-1.825518161361106E-005	1.4266343E-003	9.4598923E-003	8.5355085E-004	9.4983215E-003	5.1557450E+000	-1.767930057313694E-007
1.7786895E+004	1.0536747E+002	9.6430969E+000	1.0580781E+002	-5.2290707E+000	2.167848857628996E+001	3.3203852E+000	-2.9922060E-003	9.2790496E-001	7.7072796E-003	1.000000000000000E+000	11	1.2966610E-001	1.2254871E-003	-1.749404928352063E-005	1.1862677E-003	9.4117662E-003	8.6135289E-004	9.4510987E-003	5.2290707E+000	7.611323300904262E-007
1.5847686E+004	1.0588995E+002	9.8841410E+000	1.0635026E+002	-5.3327374E+000	2.213748366475920E+001	3.3203807E+000	-2.9541177E-003	1.0160506E+000	8.7763947E-003	1.000000000000000E+000	11	1.3300326E-001	1.2506153E-003	-1.744038563899489E-005	1.3465121E-003	9.3621947E-003	8.7390019E-004	9.4028926E-003	5.3327374E+000	5.366364452574134E-008
1.4121879E+004	1.0642966E+002	1.0161494E+001	1.0691364E+002	-5.4538488E+000	2.259648453994305E+001	3.3203790E+000	-2.9974282E-003	1.1090984E+000	1.0018875E-002	1.000000000000000E+000	11	1.3579324E-001	1.2701207E-003	-1.866297455664284E-005	1.0260234E-003	9.3110017E-003	8.8897860E-004	9.3533434E-003	5.4538488E+000	-1.222588917647954E-006
1.2590932E+004	1.0699300E+002	1.0489759E+001	1.0750598E+002	-5.5994720E+000	2.305549114840687E+001	3.3203855E+000	-2.9505659E-003	1.2050269E+000	1.1472618E-002	1.000000000000000E+000	11	1.3809358E-001	1.2845199E-003	-1.865859203324524E-005	1.3465121E-003	9.2574218E-003	9.0761209E-004	9.3018077E-003	5.5994720E+000	4.382523397602914E-009
1.1217711E+004	1.0759576E+002	1.0866402E+001	1.0814308E+002	-5.7669101E+000	2.351448570351931E+001	3.3203776E+000	-3.0506367E-003	1.3056601E+000	1.3182694E-002	1.000000000000000E+000	11	1.3999774E-001	1.2945603E-003	-1.967650426618962E-005	1.0260234E-003	9.2002088E-003	9.2915521E-004	9.2470087E-003	5.7669101E+000	-1.017912232944379E-006
1.0002229E+004	1.0822739E+002	1.1274562E+001	1.0881307E+002	-5.9473214E+000	2.410948607846512E+001	3.3203824E+000	-2.9634538E-003	1.4113139E+000	1.5151681E-002	1.000000000000000E+000	11	1.2939870E-001	1.1891834E-003	-2.160453044127725E-005	1.3465121E-003	9.1406079E-003	9.5222052E-004	9.1900723E-003	5.9473214E+000	-1.928026175087626E-006
8.9149297E+003	1.0890091E+002	1.1750731E+001	1.0953304E+002	-6.1585565E+000	2.459191935471608E+001	3.3204205E+000	-2.6270221E-003	1.5192783E+000	1.7485447E-002	1.000000000000000E+000	11	1.3051043E-001	1.1915165E-003	-2.197832024495518E-005	1.1061456E-003	9.0769762E-003	9.7943260E-004	9.1296649E-003	6.1585565E+000	-3.737898036779382E-007
7.9439976E+003	1.0961971E+002	1.2261840E+001	1.1030337E+002	-6.3824592E+000	2.511798740638187E+001	3.3204424E+000	-2.5080952E-003	1.6338996E+000	2.0191060E-002	1.000000000000000E+000	11	1.3138227E-001	1.1910994E-003	-2.168629127566884E-005	1.2663900E-003	9.0097161E-003	1.0078087E-003	9.0659065E-003	6.3824592E+000	2.920289692863474E-007
7.0822334E+003	1.1039330E+002	1.2813346E+001	1.1113444E+002	-6.6206927E+000	2.569488887378247E+001	3.3204434E+000	-2.5346070E-003	1.7538294E+000	2.3313912E-002	1.000000000000000E+000	11	1.3206294E-001	1.1883170E-003	-2.322425461303727E-005	1.1061456E-003	8.9381039E-003	1.0374454E-003	8.9981109E-003	6.6206927E+000	-1.537963337368435E-006
6.3077344E+003	1.1122977E+002	1.3412039E+001	1.1203547E+002	-6.8755064E+000	2.632956359724631E+001	3.3204460E+000	-2.5840823E-003	1.8812735E+000	2.6960656E-002	1.000000000000000E+000	11	1.3259771E-001	1.1835333E-003	-2.300144286114179E-005	1.1061456E-003	8.8615557E-003	1.0685226E-003	8.9257443E-003	6.8755064E+000	2.228117518954779E-007
5.6210552E+003	1.1213796E+002	1.4039824E+001	1.1301345E+002	-7.1363745E+000	2.703027448387002E+001	3.3204739E+000	-2.3279302E-003	2.0166969E+000	3.1124590E-002	1.000000000000000E+000	11	1.3300395E-001	1.1768860E-003	-2.388384250187341E-005	1.7471228E-003	8.7799570E-003	1.0992624E-003	8.8485042E-003	7.1363745E+000	-8.823996407316160E-007
5.0116035E+003	1.1311372E+002	1.4693132E+001	1.1406403E+002	-7.4011083E+000	2.779069764001179E+001	3.3204844E+000	-2.3443617E-003	2.1613696E+000	3.5864141E-002	1.000000000000000E+000	11	1.3330662E-001	1.1686999E-003	-2.357147041232222E-005	1.1061456E-003	8.6939652E-003	1.1293199E-003	8.7670060E-003	7.4011083E+000	3.123720895511936E-007
4.4664292E+003	1.1418143E+002	1.5373042E+001	1.1521168E+002	-7.6680188E+000	2.854969375606015E+001	3.3205011E+000	-2.2625867E-003	2.3179276E+000	4.1269243E-002	1.000000000000000E+000	11	1.3354710E-001	1.1591455E-003	-2.489078951193409E-005	1.1862677E-003	8.6020604E-003	1.1581554E-003	8.6796759E-003	7.6680188E+000	-1.319319099611879E-006
3.9812742E+003	1.1531921E+002	1.6066162E+001	1.1643299E+002	-7.9313412E+000	2.930968371215567E+001	3.3204978E+000	-2.2646429E-003	2.4882035E+000	4.7375966E-002	1.000000000000000E+000	11	1.3370834E-001	1.1483716E-003	-2.590485420464150E-005	1.1862677E-003	8.5064732E-003	1.1851137E-003	8.5886307E-003	7.9313412E+000	-1.014064692707406E-006
3.5465955E+003	1.1657017E+002	1.6772896E+001	1.1777068E+002	-8.1879034E+000	3.006896673486335E+001	3.3204811E+000	-2.3749811E-003	2.6754723E+000	5.4267790E-002	1.000000000000000E+000	11	1.3382684E-001	1.1363340E-003	-2.550186038505571E-005	1.7471228E-003	8.4045222E-003	1.2092990E-003	8.4910775E-003	8.1879034E+000	4.029938195857935E-007
3.1610112E+003	1.1791611E+002	1.7459978E+001	1.1920177E+002	-8.4226542E+000	3.082867823763809E+001	3.3204880E+000	-2.3508954E-003	2.8837020E+000	6.1868902E-002	1.000000000000000E+000	11	1.3390973E-001	1.1233871E-003	-2.518011334493510E-005	1.1862677E-003	8.2986569E-003	1.2287919E-003	8.3891377E-003	8.4226542E+000	3.217470401206024E-007
2.8172952E+003	1.1935404E+002	1.8125546E+001	1.2072250E+002	-8.6351690E+000	3.158795328703127E+001	3.3204825E+000	-2.4199751E-003	3.1167121E+000	7.0259072E-002	1.000000000000000E+000	11	1.3395484E-001	1.1096095E-003	-2.505420136535799E-005	1.0260234E-003	8.1895618E-003	1.2436971E-003	8.2834596E-003	8.6351690E+000	1.259119795771152E-007
2.5108032E+003	1.2088613E+002	1.8765287E+001	1.2233394E+002	-8.8236628E+000	3.234766852312168E+001	3.3204880E+000	-2.3529513E-003	3.3779423E+000	7.9481997E-002	1.000000000000000E+000	11	1.3397425E-001	1.0951520E-003	-2.606167245803711E-005	1.2663900E-003	8.0776047E-003	1.2538953E-003	8.1743468E-003	8.8236628E+000	-1.007471092679124E-006
2.2378516E+003	1.2251811E+002	1.9349854E+001	1.2403671E+002	-8.9748573E+000	3.310794735921081E+001	3.3204875E+000	-2.3721776E-003	3.6754556E+000	8.9447066E-002	1.000000000000000E+000	11	1.3397960E-001	1.0801610E-003	-2.734105638591831E-005	1.1862677E-003	7.9634245E-003	1.2577006E-003	8.0621298E-003	8.9748573E+000	-1.279383927881199E-006
1.9956389E+003	1.2423810E+002	1.9861469E+001	1.2581567E+002	-9.0827999E+000	3.386771179531934E+001	3.3204963E+000	-2.3824489E-003	4.0153813E+000	1.0006451E-001	1.000000000000000E+000	11	1.3396709E-001	1.0647886E-003	-2.744433533816159E-005	1.3465121E-003	7.8484751E-003	1.2547056E-003	7.9481350E-003	9.0827999E+000	-1.032789522432749E-007
1.7782927E+003	1.2604343E+002	2.0306141E+001	1.2766866E+002	-9.1519594E+000	3.462696676468477E+001	3.3204882E+000	-2.4026127E-003	4.4074712E+000	1.1150020E-001	1.000000000000000E+000	11	1.3395274E-001	1.0492217E-003	-2.864713932035698E-005	1.5868786E-003	7.7330642E-003	1.2458300E-003	7.8327758E-003	9.1519594E+000	-1.202803982195390E-006
1.5855076E+003	1.2790898E+002	2.0647972E+001	1.2956483E+002	-9.1699829E+000	3.538669090746407E+001	3.3204994E+000	-2.3107571E-003	4.8615460E+000	1.2346815E-001	1.000000000000000E+000	11	1.3393144E-001	1.0337022E-003	-2.938853137975255E-005	1.5067564E-003	7.6195048E-003	1.2299942E-003	7.7181435E-003	9.1699829E+000	-7.413920593955706E-007
1.4118373E+003	1.2984793E+002	2.0880377E+001	1.3151607E+002	-9.1353207E+000	3.614720302357455E+001	3.3204856E+000	-2.4911093E-003	5.3987989E+000	1.3608687E-001	1.000000000000000E+000	11	1.3390639E-001	1.0181752E-003	-2.905620741807313E-005	1.6670007E-003	7.5071901E-003	1.2072042E-003	7.6036337E-003	9.1353207E+000	3.323239616794222E-007
1.2587914E+003	1.3179729E+002	2.0983093E+001	1.3345717E+002	-9.0459881E+000	3.690695561966277E+001	3.3204868E+000	-2.4444356E-003	6.0255523E+000	1.4895396E-001	1.000000000000000E+000	11	1.3387409E-001	1.0031241E-003	-2.902222499545638E-005	1.8272450E-003	7.3998454E-003	1.1781096E-003	7.4930405E-003	9.0459881E+000	3.398242261674924E-008
1.1217948E+003	1.3376361E+002	2.0974091E+001	1.3539799E+002	-8.9113998E+000	3.766541912229150E+001	3.3204830E+000	-2.4509695E-003	6.7643108E+000	1.6231751E-001	1.000000000000000E+000	11	1.3384737E-001	9.8854769E-004	-2.962317016442992E-005	1.3465121E-003	7.2964826E-003	1.1440860E-003	7.3856339E-003	8.9113998E+000	-6.009451689735415E-007
1.0003201E+003	1.3571146E+002	2.0833647E+001	1.3730127E+002	-8.7275867E+000	3.842469865176099E+001	3.3204989E+000	-2.3992523E-003	7.6368775E+000	1.7583176E-001	1.000000000000000E+000	11	1.3382740E-001	9.7469892E-004	-2.928116410249883E-005	1.2663900E-003	7.1989209E-003	1.1051373E-003	7.2832541E-003	8.7275867E+000	3.420060619310892E-007
8.9142657E+002	1.3763791E+002	2.0574394E+001	1.3916716E+002	-8.5017395E+000	3.918341538109235E+001	3.3204911E+000	-2.4685175E-003	8.6777573E+000	1.8966538E-001	1.000000000000000E+000	11	1.3380179E-001	9.6144661E-004	-2.898037057080203E-005	1.3465121E-003	7.1066436E-003	1.0623155E-003	7.1856035E-003	8.5017395E+000	3.007935316968007E-007
7.9423773E+002	1.3949940E+002	2.0203314E+001	1.4095480E+002	-8.2406921E+000	3.994293480386841E+001	3.3204942E+000	-2.4324846E-003	9.9185238E+000	2.0376635E-001	1.000000000000000E+000	11	1.3377209E-001	9.4904244E-004	-3.012730035703862E-005	1.3465121E-003	7.0212199E-003	1.0168639E-003	7.0944726E-003	8.2406921E+000	-1.146929786236592E-006
7.0750946E+002	1.4128868E+002	1.9724689E+001	1.4265887E+002	-7.9474459E+000	4.070547652003006E+001	3.3204916E+000	-2.4685191E-003	1.1404538E+001	2.1802208E-001	1.000000000000000E+000	11	1.3375051E-001	9.3755481E-004	-2.983251122012088E-005	1.2663900E-003	6.9424026E-003	9.6919824E-004	7.0097288E-003	7.9474459E+000	2.947891369177421E-007
6.3100964E+002	1.4297256E+002	1.9178473E+001	1.4425314E+002	-7.6401019E+000	4.146342010269291E+001	3.3204901E+000	-2.4408863E-003	1.3151343E+001	2.3245965E-001	1.000000000000000E+000	11	1.3373226E-001	9.2706649E-004	-2.965717468901938E-005	1.4266343E-003	6.8707187E-003	9.2164456E-004	6.9322581E-003	7.6401019E+000	1.753365311014926E-007
5.6233929E+002	1.4456021E+002	1.8554796E+001	1.4574614E+002	-7.3141174E+000	4.221990541866398E+001	3.3204844E+000	-2.4756121E-003	1.5253360E+001	2.4722010E-001	1.000000000000000E+000	11	1.3371551E-001	9.1745489E-004	-3.022535520013480E-005	1.4266343E-003	6.8054162E-003	8.7349827E-004	6.8612453E-003	7.3141174E+000	-5.681805111154159E-007
5.0144415E+002	1.4603899E+002	1.7897377E+001	1.4713158E+002	-6.9868760E+000	4.297720073463279E+001	3.3204935E+000	-2.4868147E-003	1.7734060E+001	2.6240686E-001	1.000000000000000E+000	11	1.3370673E-001	9.0875622E-004	-3.016253266104953E-005	1.5067564E-003	6.7461659E-003	8.2675653E-004	6.7966375E-003	6.9868760E+000	6.282253908527184E-008
4.4685895E+002	1.4740691E+002	1.7218464E+001	1.4840913E+002	-6.6624742E+000	4.373291349053034E+001	3.3204939E+000	-2.5043653E-003	2.0684988E+001	2.7843437E-001	1.000000000000000E+000	11	1.3368568E-001	9.0079143E-004	-3.104941627204729E-005	1.4266343E-003	6.6926260E-003	7.8175939E-004	6.7381295E-003	6.6624742E+000	-8.868836109977603E-007
3.9808920E+002	1.4865614E+002	1.6511646E+001	1.4957033E+002	-6.3380203E+000	4.449571688679134E+001	3.3204880E+000	-2.5570141E-003	2.4213041E+001	2.9507962E-001	1.000000000000000E+000	11	1.3367924E-001	8.9375506E-004	-3.121207599255851E-005	1.4266343E-003	6.6449540E-003	7.3807326E-004	6.6858181E-003	6.3380203E+000	-1.626597205112214E-007
3.5465955E+002	1.4981213E+002	1.5826951E+001	1.5064583E+002	-6.0306616E+000	4.525493382950663E+001	3.3204868E+000	-2.5308763E-003	2.8353796E+001	3.1296194E-001	1.000000000000000E+000	11	1.3367267E-001	8.8733068E-004	-3.240695613392745E-005	1.5868786E-003	6.6013499E-003	6.9740176E-004	6.6380864E-003	6.0306616E+000	-1.194880141368941E-006
3.1631586E+002	1.5085269E+002	1.5177408E+001	1.5161427E+002	-5.7452402E+000	4.601190354544087E+001	3.3204896E+000	-2.4791611E-003	3.3151375E+001	3.3221298E-001	1.000000000000000E+000	11	1.3366437E-001	8.8160805E-004	-3.232439587283686E-005	1.3465121E-003	6.5625538E-003	6.6026376E-004	6.5956851E-003	5.7452402E+000	8.256026109059654E-008
2.8189429E+002	1.5181323E+002	1.4561852E+001	1.5251001E+002	-5.4790211E+000	4.676742419463699E+001	3.3204811E+000	-2.4924162E-003	3.8771915E+001	3.5347095E-001	1.000000000000000E+000	11	1.3365638E-001	8.7637774E-004	-3.305274225139551E-005	1.3465121E-003	6.5269894E-003	6.2606565E-004	6.5569468E-003	5.4790211E+000	-7.283463785586519E-007
2.5104436E+002	1.5269812E+002	1.3989937E+001	1.5333765E+002	-5.2347260E+000	4.752392180394963E+001	3.3204966E+000	-2.4123234E-003	4.5316242E+001	3.7721401E-001	1.000000000000000E+000	11	1.3365647E-001	8.7164814E-004	-3.264624907657142E-005	1.2663900E-003	6.4943559E-003	5.9500162E-004	6.5215556E-003	5.2347260E+000	4.064931748240879E-007
2.2392513E+002	1.5348740E+002	1.3490486E+001	1.5407912E+002	-5.0229969E+000	4.828672210685181E+001	3.3204916E+000	-2.5032449E-003	5.2685333E+001	4.0388465E-001	1.000000000000000E+000	11	1.3364616E-001	8.6738658E-004	-3.233443348651700E-005	1.5868786E-003	6.4652478E-003	5.6825078E-004	6.4901724E-003	5.0229969E+000	3.118155900544203E-007
1.9955299E+002	1.5424623E+002	1.3032219E+001	1.5479579E+002	-4.8294339E+000	4.904819771632901E+001	3.3204908E+000	-2.4931636E-003	6.1198879E+001	4.3377241E-001	1.000000000000000E+000	11	1.3364533E-001	8.6336536E-004	-3.232928623180164E-005	1.3465121E-003	6.4371889E-003	5.4387626E-004	6.4601242E-003	4.8294339E+000	5.147254715363219E-009
1.7778128E+002	1.5494209E+002	1.2645655E+001	1.5545728E+002	-4.6658745E+000	4.981526393941022E+001	3.3204904E+000	-2.5015655E-003	7.0793404E+001	4.6843931E-001	1.000000000000000E+000	11	1.3363907E-001	8.5965142E-004	-3.294730208268771E-005	1.6670007E-003	6.4113182E-003	5.2326208E-004	6.4326357E-003	4.6658745E+000	-6.180158508860739E-007
1.5842838E+002	1.5561067E+002	1.2315437E+001	1.5609724E+002	-4.5251064E+000	5.058175264252350E+001	3.3204908E+000	-2.5151938E-003	8.1571289E+001	5.0774604E-001	1.000000000000000E+000	11	1.3363895E-001	8.5612625E-004	-3.281161019948680E-005	1.3465121E-003	6.3862936E-003	5.0542806E-004	6.4062630E-003	4.5251064E+000	1.356918832009100E-007
1.4131134E+002	1.5622974E+002	1.2062483E+001	1.5669472E+002	-4.4150424E+000	5.133389795824769E+001	3.3204920E+000	-2.4491025E-003	9.3369797E+001	5.5331331E-001	1.000000000000000E+000	11	1.3363716E-001	8.5285044E-004	-3.358809615928395E-005	1.3465121E-003	6.3628987E-003	4.9127883E-004	6.3818363E-003	4.4150424E+000	-7.764859597971500E-007
1.2584569E+002	1.5684702E+002	1.1877538E+001	1.5729610E+002	-4.3305664E+000	5.208941375408904E+001	3.3204916E+000	-2.4423809E-003	1.0647689E+002	6.0711688E-001	1.000000000000000E+000	11	1.3363558E-001	8.4957975E-004	-3.404007267706604E-005	1.4266343E-003	6.3392865E-003	4.8005450E-004	6.3574370E-003	4.3305664E+000	-4.519765177820887E-007
1.1218996E+002	1.5743997E+002	1.1748385E+001	1.5787770E+002	-4.2675800E+000	5.283485602954170E+001	3.3204839E+000	-2.4823353E-003	1.2075023E+002	6.6865599E-001	1.000000000000000E+000	11	1.3362789E-001	8.4640132E-004	-3.474667159218290E-005	1.4266343E-003	6.3164551E-003	4.7134250E-004	6.3340166E-003	4.2675800E+000	-7.065989151168581E-007
1.0003201E+002	1.5802261E+002	1.1697006E+001	1.5845494E+002	-4.2333755E+000	5.359469366563280E+001	3.3204813E+000	-2.4687070E-003	1.3602113E+002	7.4121517E-001	1.000000000000000E+000	11	1.3362820E-001	8.4331987E-004	-3.580983967381245E-005	1.5067564E-003	6.2937243E-003	4.6586830E-004	6.3109426E-003	4.2333755E+000	-1.063168081629554E-006
8.9115974E+001	1.5859842E+002	1.1703500E+001	1.5902965E+002	-4.2203946E+000	5.436073802202009E+001	3.3204908E+000	-2.4528368E-003	1.5259799E+002	8.2646435E-001	1.000000000000000E+000	11	1.3362354E-001	8.4024295E-004	-3.621139143995242E-005	1.6670007E-003	6.2710848E-003	4.6276397E-004	6.2881359E-003	4.2203946E+000	-4.015517661399716E-007
7.9415527E+001	1.5920642E+002	1.1775065E+001	1.5964128E+002	-4.2299509E+000	5.512422432491439E+001	3.3204882E+000	-2.4427548E-003	1.7019679E+002	9.2595017E-001	1.000000000000000E+000	11	1.3362870E-001	8.3705602E-004	-3.714029266016506E-005	1.3465121E-003	6.2469812E-003	4.6203291E-004	6.2640440E-003	4.2299509E+000	-9.289012202126420E-007
7.0838745E+001	1.5978738E+002	1.1886121E+001	1.6022887E+002	-4.2542315E+000	5.587538772055996E+001	3.3204925E+000	-2.4296865E-003	1.8902060E+002	1.0401785E+000	1.000000000000000E+000	11	1.3362674E-001	8.3397422E-004	-3.721675495088372E-005	1.3465121E-003	6.2238770E-003	4.6297614E-004	6.2410729E-003	4.2542315E+000	-7.646229071865603E-008
6.3082302E+001	1.6041254E+002	1.2093435E+001	1.6086775E+002	-4.3113494E+000	5.665586314434768E+001	3.3204880E+000	-2.3710628E-003	2.0862335E+002	1.1790285E+000	1.000000000000000E+000	11	1.3362560E-001	8.3065493E-004	-3.787383283604868E-005	1.4266343E-003	6.1986959E-003	4.6731709E-004	6.2162862E-003	4.3113494E+000	-6.570778851649556E-007
5.6241817E+001	1.6104544E+002	1.2335604E+001	1.6151718E+002	-4.3801341E+000	5.740031909968820E+001	3.3204908E+000	-2.4379019E-003	2.2940369E+002	1.3380852E+000	1.000000000000000E+000	11	1.3362560E-001	8.2731503E-004	-3.773303991191723E-005	1.1061456E-003	6.1732088E-003	4.7284953E-004	6.1912918E-003	4.3801341E+000	1.407929241314465E-007
5.0144413E+001	1.6169589E+002	1.2654206E+001	1.6219029E+002	-4.4748063E+000	5.815719260231708E+001	3.3204906E+000	-2.5189274E-003	2.5082028E+002	1.5268022E+000	1.000000000000000E+000	11	1.3362636E-001	8.2388631E-004	-3.768995486000980E-005	1.4266343E-003	6.1468026E-003	4.8104438E-004	6.1655971E-003	4.4748063E+000	4.308505190743121E-008
4.4671219E+001	1.6238551E+002	1.3019547E+001	1.6290662E+002	-4.5839849E+000	5.892122714527068E+001	3.3204906E+000	-2.4575053E-003	2.7365063E+002	1.7478764E+000	1.000000000000000E+000	11	1.3362515E-001	8.2025613E-004	-3.834220057125074E-005	1.2663900E-003	6.1188508E-003	4.9058971E-004	6.1384863E-003	4.5839849E+000	-6.522457112409451E-007
3.9808922E+001	1.6310373E+002	1.3444437E+001	1.6365689E+002	-4.7121668E+000	5.968369547484326E+001	3.3204920E+000	-2.5146352E-003	2.9736996E+002	2.0068445E+000	1.000000000000000E+000	11	1.3362151E-001	8.1647350E-004	-3.929819579688289E-005	1.4266343E-003	6.0896915E-003	5.0196570E-004	6.1103445E-003	4.7121668E+000	-9.559952256321438E-007
3.5465305E+001	1.6383742E+002	1.3932070E+001	1.6442871E+002	-4.8605080E+000	6.043413473709370E+001	3.3204958E+000	-2.4552643E-003	3.2210745E+002	2.3124735E+000	1.000000000000000E+000	11	1.3362299E-001	8.1265002E-004	-3.953360599194679E-005	1.5868786E-003	6.0597928E-003	5.1530026E-004	6.0816631E-003	4.8605080E+000	-2.354101950639037E-007
3.1629551E+001	1.6463933E+002	1.4460732E+001	1.6527318E+002	-5.0195665E+000	6.115845181149780E+001	3.3204889E+000	-2.6076112E-003	3.4796600E+002	2.6638677E+000	1.000000000000000E+000	11	1.3362752E-001	8.0852513E-004	-3.915386870637950E-005	1.2663900E-003	6.0273837E-003	5.2940194E-004	6.0505886E-003	5.0195665E+000	3.797372855672923E-007
2.8170074E+001	1.6547356E+002	1.5064358E+001	1.6615785E+002	-5.2017460E+000	6.196377083647531E+001	3.3204899E+000	-2.5784867E-003	3.7504340E+002	3.0827692E+000	1.000000000000000E+000	11	1.3362266E-001	8.0419105E-004	-3.884918213760506E-005	1.8272450E-003	5.9935874E-003	5.4564333E-004	6.0183732E-003	5.2017460E+000	3.046865687744374E-007
2.5104435E+001	1.6634990E+002	1.5716081E+001	1.6709065E+002	-5.3970590E+000	6.271994020571583E+001	3.3204882E+000	-2.4041107E-003	4.0339032E+002	3.5686967E+000	1.000000000000000E+000	11	1.3362406E-001	7.9970999E-004	-3.948889690440976E-005	1.0260234E-003	5.9582437E-003	5.6291127E-004	5.9847753E-003	5.3970590E+000	-6.397147668047020E-007
2.2385387E+001	1.6726787E+002	1.6418648E+001	1.6807175E+002	-5.6060696E+000	6.340643642496434E+001	3.3204734E+000	-2.4132577E-003	4.3303018E+002	4.1324105E+000	1.000000000000000E+000	11	1.3362511E-001	7.9504802E-004	-4.133661233880816E-005	1.5868786E-003	5.9213820E-003	5.8122992E-004	5.9498399E-003	5.6060696E+000	-1.847715434398394E-006
1.9955299E+001	1.6825568E+002	1.7184427E+001	1.6913095E+002	-5.8315592E+000	6.416719102111529E+001	3.3204896E+000	-2.4784168E-003	4.6411633E+002	4.7912712E+000	1.000000000000000E+000	11	1.3362475E-001	7.9006678E-004	-4.281591044391260E-005	1.5067564E-003	5.8819801E-003	6.0074322E-004	5.9125782E-003	5.8315592E+000	-1.479298105104441E-006
1.7796129E+001	1.6927267E+002	1.7995392E+001	1.7022653E+002	-6.0683265E+000	6.501151743452647E+001	3.3204613E+000	-2.9219191E-003	4.9697357E+002	5.5539427E+000	1.000000000000000E+000	11	1.3362238E-001	7.8496797E-004	-4.365215006392261E-005	1.4266343E-003	5.8416072E-003	6.2102173E-004	5.8745248E-003	6.0683265E+000	-8.362396200100152E-007
1.5857576E+001	1.7037427E+002	1.8878159E+001	1.7141696E+002	-6.3228126E+000	6.573291141548543E+001	3.3204963E+000	-2.7517425E-003	5.3164740E+002	6.4481535E+000	1.000000000000000E+000	11	1.3361795E-001	7.7949086E-004	-4.027640925459370E-005	1.0260234E-003	5.7982425E-003	6.4246880E-004	5.8337282E-003	6.3228126E+000	3.375740809328914E-006
1.4118974E+001	1.7153580E+002	1.9812820E+001	1.7267622E+002	-6.5886121E+000	6.653523718690849E+001	3.3205075E+000	-2.3578091E-003	5.6894556E+002	7.4902830E+000	1.000000000000000E+000	11	1.3362074E-001	7.7382242E-004	-4.303888998517586E-005	1.4266343E-003	5.7529379E-003	6.6447892E-004	5.7911854E-003	6.5886121E+000	-2.762480730582158E-006
1.2600808E+001	1.7275888E+002	2.0796469E+001	1.7400610E+002	-6.8641558E+000	6.742587554923375E+001	3.3204682E+000	-2.7553844E-003	6.0734033E+002	8.6752577E+000	1.000000000000000E+000	11	1.3362060E-001	7.6790759E-004	-4.568288238933747E-005	1.0260234E-003	5.7057324E-003	6.8684801E-004	5.7469248E-003	6.8641558E+000	-2.643992404161610E-006
1.1224856E+001	1.7407111E+002	2.1846529E+001	1.7543666E+002	-7.1534181E+000	6.810990718172980E+001	3.3204725E+000	-2.9429235E-003	6.4901819E+002	1.0064241E+001	1.000000000000000E+000	11	1.3362120E-001	7.6164928E-004	-4.212438534351531E-005	1.8272450E-003	5.6556952E-003	7.0980942E-004	5.7000630E-003	7.1534181E+000	3.558497045822153E-006
1.0003201E+001	1.7546082E+002	2.2950335E+001	1.7695540E+002	-7.4520020E+000	6.887070852454053E+001	3.3204823E+000	-2.6611944E-003	6.9325360E+002	1.1661181E+001	1.000000000000000E+000	11	1.3361576E-001	7.5508159E-004	-4.278375276612092E-005	1.3465121E-003	5.6034112E-003	7.3292817E-004	5.6511415E-003	7.4520020E+000	-6.593674226056071E-007
8.9183798E+000	1.7689565E+002	2.4086178E+001	1.7852791E+002	-7.7537322E+000	6.971503349795239E+001	3.3204558E+000	-2.7830170E-003	7.4091144E+002	1.3486207E+001	1.000000000000000E+000	11	1.3361801E-001	7.4844324E-004	-4.622707600024296E-005	1.1061456E-003	5.5501526E-003	7.5571082E-004	5.6013651E-003	7.7537322E+000	-3.443323234122039E-006
7.9395342E+000	1.7843819E+002	2.5329929E+001	1.8022705E+002	-8.0793581E+000	7.065268852917507E+001	3.3204794E+000	-2.7936581E-003	7.9139111E+002	1.5632166E+001	1.000000000000000E+000	11	1.3361652E-001	7.4137887E-004	-4.465479254906920E-005	1.9073671E-003	5.4934840E-003	7.7981938E-004	5.5485568E-003	8.0793581E+000	1.572283451173765E-006
7.0765405E+000	1.8002751E+002	2.6637016E+001	1.8198746E+002	-8.4164658E+000	7.121104474234744E+001	3.3204536E+000	-2.8529363E-003	8.4433264E+002	1.8088469E+001	1.000000000000000E+000	11	1.3361456E-001	7.3419651E-004	-4.613108681423667E-005	1.1862677E-003	5.4357061E-003	8.0427149E-004	5.4948842E-003	8.4164658E+000	-1.476294265167474E-006
6.3105822E+000	1.8175935E+002	2.7924019E+001	1.8389185E+002	-8.7341652E+000	7.183121239845059E+001	3.3204727E+000	-3.4503706E-003	9.0317676E+002	2.0825895E+001	1.000000000000000E+000	11	1.3361686E-001	7.2660571E-004	-4.986074041984910E-005	1.5868786E-003	5.3749178E-003	8.2575832E-004	5.4379790E-003	8.7341652E+000	-3.729653605612434E-006
5.6205034E+000	1.8353696E+002	2.9342552E+001	1.8586769E+002	-9.0831661E+000	7.251767592442775E+001	3.3204725E+000	-3.4867781E-003	9.6504388E+002	2.4051104E+001	1.000000000000000E+000	11	1.3361700E-001	7.1888231E-004	-5.323079150298286E-005	1.3465121E-003	5.3127054E-003	8.4935664E-004	5.3801714E-003	9.0831661E+000	-3.370051083133759E-006
5.0144415E+000	1.8530020E+002	3.0772488E+001	1.8783800E+002	-9.4289608E+000	7.327518774705823E+001	3.3204789E+000	-4.0571420E-003	1.0314186E+003	2.7681734E+001	1.000000000000000E+000	11	1.3362280E-001	7.1137253E-004	-5.027624426186473E-005	1.4266343E-003	5.2518100E-003	8.7215909E-004	5.3237365E-003	9.4289608E+000	2.954547241118136E-006
4.4693937E+000	1.8732774E+002	3.2435036E+001	1.9011501E+002	-9.8231392E+000	7.411652056031744E+001	3.3204505E+000	-3.5343864E-003	1.0978857E+003	3.1956051E+001	1.000000000000000E+000	11	1.3361901E-001	7.0283253E-004	-4.193877909860910E-005	1.8272450E-003	5.1828581E-003	8.9739071E-004	5.2599739E-003	9.8231392E+000	8.337465163255630E-006
3.9778514E+000	1.8942941E+002	3.3994240E+001	1.9245547E+002	-1.0173779E+001	7.505317063149414E+001	3.3204772E+000	-2.3367160E-003	1.1769723E+003	3.6721157E+001	1.000000000000000E+000	11	1.3362461E-001	6.9431443E-004	-4.603883994412738E-005	1.6670007E-003	5.1143076E-003	9.1779308E-004	5.1960070E-003	1.0173779E+001	-4.100060845518278E-006
3.5511365E+000	1.9158952E+002	3.5775501E+001	1.9490108E+002	-1.0577027E+001	7.609439942761674E+001	3.3204746E+000	-2.6063076E-003	1.2527576E+003	4.2209480E+001	1.000000000000000E+000	11	1.3361585E-001	6.8555726E-004	-5.880670342747544E-005	1.6670007E-003	5.0436305E-003	9.4179687E-004	5.1308079E-003	1.0577027E+001	-1.276786348334806E-005
3.1603966E+000	1.9387527E+002	3.7515820E+001	1.9747166E+002	-1.0951662E+001	7.725721817617887E+001	3.3204768E+000	-3.2353895E-003	1.3423448E+003	4.8448845E+001	1.000000000000000E+000	11	1.3361967E-001	6.7665236E-004	-4.752590954499060E-005	1.5868786E-003	4.9717906E-003	9.6206600E-004	5.0640176E-003	1.0951662E+001	1.128079388248484E-005
2.8183618E+000	1.9632220E+002	3.9399612E+001	2.0023671E+002	-1.1347859E+001	7.855269383774430E+001	3.3204856E+000	-2.3394995E-003	1.4332813E+003	5.5491688E+001	1.000000000000000E+000	11	1.3362005E-001	6.6731049E-004	-4.543041216533554E-005	1.1862677E-003	4.8964582E-003	9.8266290E-004	4.9940892E-003	1.1347859E+001	2.095497379655067E-006
2.5136740E+000	1.9876910E+002	4.1430344E+001	2.0304095E+002	-1.1773846E+001	7.999674219965527E+001	3.3204787E+000	-2.4188471E-003	1.5282438E+003	6.3630074E+001	1.000000000000000E+000	11	1.3361742E-001	6.5808109E-004	-6.491665814466453E-005	1.1862677E-003	4.8214933E-003	1.0049656E-003	4.9251146E-003	1.1773846E+001	-1.948624597932899E-005
2.2398219E+000	2.0135034E+002	4.3459988E+001	2.0598721E+002	-1.2180017E+001	8.161139582298347E+001	3.3204744E+000	-3.4283907E-003	1.6349972E+003	7.2780609E+001	1.000000000000000E+000	11	1.3361749E-001	6.4866885E-004	-4.399783369793052E-005	9.4590132E-004	4.7453893E-003	1.0242573E-003	4.8546703E-003	1.2180017E+001	2.091882444673401E-005
1.9970604E+000	2.0417999E+002	4.5583179E+001	2.0920634E+002	-1.2584910E+001	8.341570148205210E+001	3.3204894E+000	-2.0466817E-003	1.7483336E+003	8.3001099E+001	1.000000000000000E+000	11	1.3361809E-001	6.3869043E-004	-5.859952522980489E-005	9.4590132E-004	4.6651270E-003	1.0414895E-003	4.7799698E-003	1.2584910E+001	-1.460169153187437E-005
1.7796129E+000	2.0712000E+002	4.7899384E+001	2.1258655E+002	-1.3021525E+001	8.543387016456109E+001	3.3204801E+000	-3.0598994E-003	1.8670875E+003	9.4787910E+001	1.000000000000000E+000	11	1.3362102E-001	6.2854879E-004	-6.311048334152697E-005	1.5067564E-003	4.5830063E-003	1.0598841E-003	4.7039664E-003	1.3021525E+001	-4.510958111722077E-006
1.5846854E+000	2.1016891E+002	5.0381851E+001	2.1612335E+002	-1.3480604E+001	8.769305651186733E+001	3.3204887E+000	-2.7291072E-003	1.9934390E+003	1.0832977E+002	1.000000000000000E+000	11	1.3361946E-001	6.1825552E-004	-4.451545328856122E-005	1.0260234E-003	4.4995090E-003	1.0786257E-003	4.6269875E-003	1.3480604E+001	1.859503005296575E-005
1.4122382E+000	2.1332782E+002	5.2936771E+001	2.1979778E+002	-1.3936304E+001	9.022210927199922E+001	3.3204882E+000	-2.2867310E-003	2.1288972E+003	1.2348750E+002	1.000000000000000E+000	11	1.3361847E-001	6.0791551E-004	-7.968489897286054E-005	1.9874892E-003	4.4157137E-003	1.0957484E-003	4.5496365E-003	1.3936304E+001	-3.516944568429932E-005
1.2596743E+000	2.1662781E+002	5.5538330E+001	2.2363388E+002	-1.4379592E+001	9.305091247303062E+001	3.3204939E+000	-3.1200396E-003	2.2749353E+003	1.4030704E+002	1.000000000000000E+000	11	1.3361856E-001	5.9748802E-004	-4.173086111937381E-005	1.5868786E-003	4.3315068E-003	1.1104975E-003	4.4715945E-003	1.4379592E+001	3.795403785348673E-005
1.1224856E+000	2.2018797E+002	5.8318615E+001	2.2778017E+002	-1.4834641E+001	9.621912702350528E+001	3.3204892E+000	-2.2073621E-003	2.4312642E+003	1.5937299E+002	1.000000000000000E+000	11	1.3361496E-001	5.8659608E-004	-8.421545307414555E-005	1.4266343E-003	4.2438670E-003	1.1240235E-003	4.3901978E-003	1.4834641E+001	-4.248459195477174E-005
1.0000638E+000	2.2393990E+002	6.1258381E+001	2.3216733E+002	-1.5298895E+001	9.976830828536185E+001	3.3204942E+000	-3.0883753E-003	2.5979268E+003	1.8086551E+002	1.000000000000000E+000	11	1.3361788E-001	5.7552406E-004	-5.210722443340476E-005	1.1862677E-003	4.1546007E-003	1.1364840E-003	4.3072384E-003	1.5298895E+001	3.210822864074079E-005