EC-Lab ASCII FILE
Nb header lines : 59                          

Potentio Electrochemical Impedance Spectroscopy

Run on channel : 10 (SN 41749)
User : 
CE vs. WE compliance from -10 V to 10 V
Electrode connection : standard
Ewe ctrl range : min = -10.00 V, max = 10.00 V
Acquisition started on : 05/08/2020 13:14:02
Saved on :
	File : DE_104_10_30.mpr
	Directory : P:\Chemistry\Data\VMP3\Kyler\DOE\DE_104\
	Host : 10.0.4.64
Device : VMP3 (SN 1432)
Address : USB
EC-Lab for windows v11.33 (software)
Internet server v11.32 (firmware)
Command interpretor v11.33 (firmware)
Electrode material : 
Initial state : 
Electrolyte : 
Comments : 
Electrode surface area : 0.001 cm²
Characteristic mass : 0.001 g
Equivalent Weight : 0.000 g/eq.
Density : 0.000 g/cm3
Record Analogic IN 1
Cycle Definition : Charge/Discharge alternance
Mode                Single sine         
E (V)               0.0000              
vs.                 Eoc                 
tE (h:m:s)          0:00:0.0000         
record              0                   
dI                  1.000               
unit dI             mA                  
dt (s)              0.000               
fi                  1.000               
unit fi             MHz                 
ff                  1.000               
unit ff             Hz                  
Nd                  20                  
Points              per decade          
spacing             Logarithmic         
Va (mV)             128.0               
pw                  0.50                
Na                  3                   
corr                0                   
E range min (V)     -10.000             
E range max (V)     10.000              
I Range             Auto                
Bandwidth           5                   
nc cycles           0                   
goto Ns'            0                   
nr cycles           0                   
inc. cycle          1                   

freq/Hz	Re(Z)/Ohm	-Im(Z)/Ohm	|Z|/Ohm	Phase(Z)/deg	time/s	<Ewe>/V	<I>/mA	Cs/µF	Cp/µF	cycle number	I Range	|Ewe|/V	|I|/A	(Q-Qo)/mA.h	Analog IN 1/V	Re(Y)/Ohm-1	Im(Y)/Ohm-1	|Y|/Ohm-1	Phase(Y)/deg	dq/mA.h	
7.9433269E+005	3.9027795E+002	5.2367273E+002	6.5310797E+002	-5.3303917E+001	4.101484274753602E+000	-1.7835785E-003	1.1411362E-005	3.8261127E-004	2.4598447E-004	1.000000000000000E+000	12	1.1219170E-003	1.7178126E-006	-3.754701085216058E-006	5.8547192E-004	9.1496407E-004	1.2276936E-003	1.5311404E-003	5.3303917E+001	-2.004734490194096E-006
7.0794981E+005	4.1790701E+002	5.6572516E+002	7.0334290E+002	-5.3546337E+001	4.696476729732240E+000	-1.9408129E-003	1.6387263E-005	3.9738565E-004	2.5709221E-004	1.000000000000000E+000	12	2.9178085E-003	4.1484864E-006	-3.727839422550056E-006	6.6564087E-004	8.4478350E-004	1.1435925E-003	1.4217816E-003	5.3546337E+001	2.686166266600269E-008
6.3095681E+005	4.4991495E+002	6.1839868E+002	7.6474860E+002	-5.3962299E+001	5.292476998030907E+000	-2.0665629E-003	7.4420536E-006	4.0789836E-004	2.6671760E-004	1.000000000000000E+000	12	5.4767816E-003	7.1615455E-006	-3.718076196885679E-006	7.4580981E-004	7.6929526E-004	1.0573802E-003	1.3076193E-003	5.3962299E+001	9.763225664376858E-009
5.6234225E+005	4.8234793E+002	6.7775867E+002	8.3187518E+002	-5.4561264E+001	5.888485079660313E+000	-2.1281703E-003	3.0159295E-005	4.1758447E-004	2.7719038E-004	1.000000000000000E+000	12	8.8608628E-003	1.0651674E-005	-3.701801560646522E-006	5.0530297E-004	6.9701817E-004	9.7939698E-004	1.2021034E-003	5.4561264E+001	1.627463623915685E-008
5.0120619E+005	5.1872150E+002	7.4128729E+002	9.0475348E+002	-5.5017300E+001	6.485475668014260E+000	-2.1737469E-003	5.8022251E-006	4.2836813E-004	2.8756083E-004	1.000000000000000E+000	12	1.3162875E-002	1.4548576E-005	-3.691385133226276E-006	5.8547192E-004	6.3368544E-004	9.0557843E-004	1.1052735E-003	5.5017300E+001	1.041642742024557E-008
4.4668572E+005	5.5746021E+002	8.1079462E+002	9.8394604E+002	-5.5489613E+001	7.081485083006555E+000	-2.2059579E-003	-7.9487972E-007	4.3944767E-004	2.9839142E-004	1.000000000000000E+000	12	1.8440241E-002	1.8741110E-005	-3.695001805235506E-006	5.0530297E-004	5.7579949E-004	8.3746813E-004	1.0163159E-003	5.5489613E+001	-3.616672009229880E-009
3.9810347E+005	6.0124670E+002	8.8756964E+002	1.0720436E+003	-5.5885979E+001	7.677480044629192E+000	-2.2020431E-003	5.2247347E-006	4.5042424E-004	3.0874630E-004	1.000000000000000E+000	12	2.4799386E-002	2.3132814E-005	-3.661579464791405E-006	4.2513400E-004	5.2315189E-004	7.7228493E-004	9.3279791E-004	5.5885979E+001	3.342234044410161E-008
3.5480997E+005	6.4986176E+002	9.6672815E+002	1.1648535E+003	-5.6089901E+001	8.273485192941735E+000	-2.2130781E-003	1.1169725E-005	4.6400211E-004	3.1958477E-004	1.000000000000000E+000	12	3.2317482E-002	2.7743818E-005	-3.672759572457304E-006	7.4580981E-004	4.7893694E-004	7.1246206E-004	8.5847703E-004	5.6089901E+001	-1.118010766589955E-008
3.1622997E+005	7.0418976E+002	1.0519288E+003	1.2658741E+003	-5.6200573E+001	8.868497087882133E+000	-2.2425305E-003	2.3767690E-005	4.7844357E-004	3.3038660E-004	1.000000000000000E+000	12	4.1155946E-002	3.2511878E-005	-3.634403997421411E-006	5.8547192E-004	4.3944916E-004	6.5645546E-004	7.8996795E-004	5.6200573E+001	3.835557503589368E-008
2.8183453E+005	7.6812695E+002	1.1429716E+003	1.3770995E+003	-5.6097172E+001	9.463474636111641E+000	-2.2681425E-003	2.5333238E-005	4.9407227E-004	3.4035387E-004	1.000000000000000E+000	12	5.1418334E-002	3.7338141E-005	-3.679307592057613E-006	9.8631659E-004	4.0504415E-004	6.0270500E-004	7.2616397E-004	5.6097172E+001	-4.490359463620253E-008
2.5118764E+005	8.4070209E+002	1.2390315E+003	1.4973240E+003	-5.5842499E+001	1.005948794443975E+001	-2.3329556E-003	2.4856413E-006	5.1137502E-004	3.5016492E-004	1.000000000000000E+000	12	6.3238218E-002	4.2234158E-005	-3.753128330057102E-006	7.4580981E-004	3.7498213E-004	5.5265077E-004	6.6785811E-004	5.5842499E+001	-7.382073799948933E-008
2.2387173E+005	9.2434650E+002	1.3398347E+003	1.6277511E+003	-5.5398365E+001	1.065447271938319E+001	-2.3098222E-003	6.2362888E-005	5.3060288E-004	3.5949767E-004	1.000000000000000E+000	12	7.6710574E-002	4.7126723E-005	-3.849849349940567E-006	4.2513400E-004	3.4886613E-004	5.0567940E-004	6.1434455E-004	5.5398365E+001	-9.672101988346423E-008
1.9954350E+005	1.0178680E+003	1.4415404E+003	1.7646796E+003	-5.4774181E+001	1.125148440102930E+001	-2.3754188E-003	6.4738365E-006	5.5329374E-004	3.6921358E-004	1.000000000000000E+000	12	9.1954015E-002	5.2108051E-005	-3.821861979178493E-006	5.0530297E-004	3.2685846E-004	4.6290841E-004	5.6667509E-004	5.4774181E+001	2.798737076207397E-008
1.7783180E+005	1.1216036E+003	1.5457308E+003	1.9097849E+003	-5.4034843E+001	1.184648616265622E+001	-2.4056723E-003	-1.0056160E-005	5.7899771E-004	3.7929375E-004	1.000000000000000E+000	12	1.0909444E-001	5.7123940E-005	-3.749328079031910E-006	5.0530297E-004	3.0751797E-004	4.2380390E-004	5.2361918E-004	5.4034843E+001	7.253390014658232E-008
1.5848613E+005	1.2368073E+003	1.6518916E+003	2.0635984E+003	-5.3177002E+001	1.230548311778693E+001	-2.3586222E-003	3.5109831E-006	6.0792128E-004	3.8954717E-004	1.000000000000000E+000	12	1.2810929E-001	6.2080537E-005	-3.789494050512657E-006	6.6564087E-004	2.9043682E-004	3.8791020E-004	4.8459042E-004	5.3177002E+001	-4.016597148074622E-008
1.4125594E+005	1.3629678E+003	1.7567650E+003	2.2234893E+003	-5.2194279E+001	1.290148674606462E+001	-2.4070507E-003	-1.9495669E-006	6.4135686E-004	4.0036583E-004	1.000000000000000E+000	12	1.2982988E-001	5.8390153E-005	-3.786953255092537E-006	2.4289257E-005	2.7568647E-004	3.5533961E-004	4.4974356E-004	5.2194279E+001	2.540795420120130E-009
1.2590930E+005	1.5010586E+003	1.8630977E+003	2.3925530E+003	-5.1142338E+001	1.349847696113284E+001	-2.3896962E-003	-5.3413305E-006	6.7846384E-004	4.1141000E-004	1.000000000000000E+000	12	1.3001016E-001	5.4339511E-005	-3.725181556361122E-006	5.8547192E-004	2.6222525E-004	3.2547113E-004	4.1796357E-004	5.1142338E+001	6.177169873141467E-008
1.1220494E+005	1.6499841E+003	1.9680013E+003	2.5681660E+003	-5.0023327E+001	1.409448976276326E+001	-2.2900619E-003	4.1695614E-005	7.2074687E-004	4.2324062E-004	1.000000000000000E+000	12	1.3016564E-001	5.0684277E-005	-3.795589306730891E-006	8.2597876E-004	2.5016905E-004	2.9838650E-004	3.8938291E-004	5.0023327E+001	-7.040775036976900E-008
1.0000371E+005	1.8095974E+003	2.0703835E+003	2.7497510E+003	-4.8845249E+001	1.468948083100258E+001	-2.3785492E-003	-1.3373511E-005	7.6869346E-004	4.3578079E-004	1.000000000000000E+000	12	1.2985477E-001	4.7224192E-005	-3.802219852546209E-006	8.2597876E-004	2.3932896E-004	2.7381929E-004	3.6366930E-004	4.8845249E+001	-6.630545815318570E-009
8.9129305E+004	1.9829901E+003	2.1678262E+003	2.9379790E+003	-4.7549702E+001	1.528548763264553E+001	-2.3625370E-003	-1.8088454E-005	8.2371157E-004	4.4846308E-004	1.000000000000000E+000	12	1.2982741E-001	4.4189361E-005	-3.864425414118538E-006	4.2513400E-004	2.2973289E-004	2.5114647E-004	3.4037002E-004	4.7549702E+001	-6.220556157232848E-008
7.9433273E+004	2.1660857E+003	2.2629060E+003	3.1325183E+003	-4.6252319E+001	1.588149102099123E+001	-2.3014327E-003	1.0629454E-005	8.8542374E-004	4.6205850E-004	1.000000000000000E+000	12	1.2964585E-001	4.1387102E-005	-3.899325210812473E-006	-5.5879696E-005	2.2074374E-004	2.3061060E-004	3.1923197E-004	4.6252319E+001	-3.489979669393511E-008
7.0794977E+004	2.3594758E+003	2.3511563E+003	3.3309250E+003	-4.4898808E+001	1.647649448920856E+001	-2.3364027E-003	2.2245590E-006	9.5617236E-004	4.7639749E-004	1.000000000000000E+000	12	1.2941252E-001	3.8851824E-005	-3.831738740844609E-006	6.6564087E-004	2.1266000E-004	2.1191014E-004	3.0021690E-004	4.4898808E+001	6.758646996786383E-008
6.3093828E+004	2.5629895E+003	2.4344680E+003	3.5349045E+003	-4.3526829E+001	1.693648784441757E+001	-2.3427028E-003	-2.8443642E-006	1.0361656E-003	4.9145293E-004	1.000000000000000E+000	12	1.4072919E-001	3.9811312E-005	-3.812973557114447E-006	2.6479611E-004	2.0511218E-004	1.9482680E-004	2.8289307E-004	4.3526829E+001	1.876518373016246E-008
5.6237012E+004	2.7728337E+003	2.5083269E+003	3.7390254E+003	-4.2132740E+001	1.753148379267077E+001	-2.3353961E-003	-5.8262513E-006	1.1282718E-003	5.0776784E-004	1.000000000000000E+000	12	1.3040245E-001	3.4876051E-005	-3.877759625647917E-006	5.8547192E-004	1.9833849E-004	1.7941855E-004	2.6744939E-004	4.2132740E+001	-6.478606853347074E-008
5.0122477E+004	2.9924517E+003	2.5750374E+003	3.9478582E+003	-4.0712353E+001	1.799147250785609E+001	-2.3337554E-003	2.2431034E-006	1.2331164E-003	5.2462390E-004	1.000000000000000E+000	12	1.3896450E-001	3.5199973E-005	-3.897936017857799E-006	5.8547192E-004	1.9200126E-004	1.6521916E-004	2.5330190E-004	4.0712353E+001	-2.017639220988137E-008
4.4666715E+004	3.2174883E+003	2.6321526E+003	4.1569771E+003	-3.9285805E+001	1.858749704281217E+001	-2.3148167E-003	-1.0299193E-005	1.3537081E-003	5.4274010E-004	1.000000000000000E+000	12	1.2984601E-001	3.1235679E-005	-3.914809562974647E-006	1.0445821E-004	1.8619231E-004	1.5231961E-004	2.4055943E-004	3.9285805E+001	-1.687354511684805E-008
3.9814063E+004	3.4471445E+003	2.6796252E+003	4.3661421E+003	-3.7859577E+001	1.904748799800291E+001	-2.3242487E-003	6.9390067E-006	1.4917966E-003	5.6190381E-004	1.000000000000000E+000	12	1.3583243E-001	3.1110401E-005	-3.883970960981944E-006	4.2513400E-004	1.8082721E-004	1.4056536E-004	2.2903515E-004	3.7859577E+001	3.083860199270264E-008
3.5480996E+004	3.6813550E+003	2.7182322E+003	4.5761514E+003	-3.6441349E+001	1.964249231960275E+001	-2.3261132E-003	-3.1376454E-005	1.6502045E-003	5.8225082E-004	1.000000000000000E+000	12	1.2928763E-001	2.8252480E-005	-3.909112024092994E-006	2.6479611E-004	1.7579517E-004	1.2980330E-004	2.1852423E-004	3.6441349E+001	-2.514106311104979E-008
3.1621143E+004	4.0346743E+003	2.6560754E+003	4.8304590E+003	-3.3357399E+001	2.040448667577584E+001	-2.3057952E-003	-8.6313157E-006	1.8949691E-003	5.7293609E-004	1.000000000000000E+000	13	1.2377769E-001	2.5624417E-005	-3.897687455923384E-006	5.8547192E-004	1.7291460E-004	1.1383180E-004	2.0701966E-004	3.3357399E+001	1.142456816960965E-008
2.8188096E+004	4.2602734E+003	2.6746094E+003	5.0302549E+003	-3.2120697E+001	2.086447712432710E+001	-2.3113491E-003	-8.5454749E-006	2.1110282E-003	5.9680815E-004	1.000000000000000E+000	13	1.3703617E-001	2.7242393E-005	-3.882254352950920E-006	5.0530297E-004	1.6836720E-004	1.0570131E-004	1.9879709E-004	3.2120697E+001	1.543310297246402E-008
2.5116910E+004	4.4865806E+003	2.6852402E+003	5.2287588E+003	-3.0900724E+001	2.145947720590630E+001	-2.2856069E-003	-1.0215833E-005	2.3597761E-003	6.2235736E-004	1.000000000000000E+000	13	1.3027744E-001	2.4915556E-005	-3.898148810711948E-006	4.2513400E-004	1.6410365E-004	9.8216828E-005	1.9124997E-004	3.0900724E+001	-1.589445776102759E-008
2.2389027E+004	4.7101221E+003	2.6882969E+003	5.4233008E+003	-2.9715513E+001	2.205448083419469E+001	-2.2829412E-003	-1.0926060E-005	2.6442816E-003	6.4973277E-004	1.000000000000000E+000	13	1.2924558E-001	2.3831535E-005	-3.870626044405147E-006	1.0445821E-004	1.6014183E-004	9.1400769E-005	1.8438956E-004	2.9715513E+001	2.752276630680121E-008
1.9948783E+004	4.9322021E+003	2.6840984E+003	5.6152471E+003	-2.8554979E+001	2.251447261599242E+001	-2.2870230E-003	-8.2083188E-006	2.9723865E-003	6.7914801E-004	1.000000000000000E+000	13	1.3835920E-001	2.4639914E-005	-3.861707614604989E-006	7.4580981E-004	1.5642391E-004	8.5125699E-005	1.7808656E-004	2.8554979E+001	8.918429800158007E-009
1.7786895E+004	5.1483091E+003	2.6732729E+003	5.8009893E+003	-2.7440712E+001	2.311047883101855E+001	-2.2722229E-003	-1.2784510E-005	3.3471617E-003	7.1081927E-004	1.000000000000000E+000	13	1.2992327E-001	2.2396744E-005	-3.888446996054957E-006	5.0530297E-004	1.5298910E-004	7.9439989E-005	1.7238439E-004	2.7440712E+001	-2.673938144996817E-008
1.5847686E+004	5.3615835E+003	2.6560396E+003	5.9834038E+003	-2.6353052E+001	2.357047447949299E+001	-2.2871350E-003	-1.0409733E-005	3.7811135E-003	7.4506161E-004	1.000000000000000E+000	13	1.3587773E-001	2.2709102E-005	-3.875500034779356E-006	4.2513400E-004	1.4976021E-004	7.4188720E-005	1.6712895E-004	2.6353052E+001	1.294696127560071E-008
1.4121879E+004	5.5688369E+003	2.6360449E+003	6.1612236E+003	-2.5330837E+001	2.402948815465788E+001	-2.2861469E-003	-1.1015545E-005	4.2753811E-003	7.8261201E-004	1.000000000000000E+000	13	1.4070149E-001	2.2836613E-005	-3.893065275241977E-006	5.8547192E-004	1.4670016E-004	6.9441463E-005	1.6230543E-004	2.5330837E+001	-1.756524046262119E-008
1.2590932E+004	5.7685078E+003	2.6114980E+003	6.3321089E+003	-2.4357042E+001	2.462549815626699E+001	-2.2825499E-003	-1.0256892E-005	4.8403032E-003	8.2329451E-004	1.000000000000000E+000	13	1.2961850E-001	2.0470035E-005	-3.896732636034535E-006	8.2597876E-004	1.4386883E-004	6.5131782E-005	1.5792527E-004	2.4357042E+001	-3.667360792557543E-009
1.1217711E+004	5.9612925E+003	2.5842759E+003	6.4973447E+003	-2.3437183E+001	2.508548801814322E+001	-2.2737326E-003	-1.0392974E-005	5.4900590E-003	8.6852629E-004	1.000000000000000E+000	13	1.3218249E-001	2.0344080E-005	-3.883183867363464E-006	9.8631659E-004	1.4121103E-004	6.1216298E-005	1.5390903E-004	2.3437183E+001	1.354876867107100E-008
1.0002229E+004	6.1452837E+003	2.5577715E+003	6.6563281E+003	-2.2597908E+001	2.554548873330350E+001	-2.2766590E-003	-7.8746889E-006	6.2210192E-003	9.1857708E-004	1.000000000000000E+000	13	1.3405782E-001	2.0139905E-005	-3.878374834013382E-006	5.0530297E-004	1.3869873E-004	5.7728768E-005	1.5023298E-004	2.2597908E+001	4.809033350081669E-009
8.9149297E+003	6.3227666E+003	2.5305452E+003	6.8103623E+003	-2.1812647E+001	2.602790830293088E+001	-2.2694450E-003	-1.5517178E-005	7.0548551E-003	9.7403792E-004	1.000000000000000E+000	13	1.3540746E-001	1.9882564E-005	-3.891422419519156E-006	5.0530297E-004	1.3632224E-004	5.4559914E-005	1.4683507E-004	2.1812647E+001	-1.304758550577423E-008
7.9439976E+003	6.4926201E+003	2.5073118E+003	6.9599375E+003	-2.1115499E+001	2.655397891456960E+001	-2.2612431E-003	-1.4956110E-005	7.9904767E-003	1.0369999E-003	1.000000000000000E+000	13	1.3635652E-001	1.9591629E-005	-3.872991378164417E-006	2.6479611E-004	1.3403226E-004	5.1760406E-005	1.4367946E-004	2.1115499E+001	1.843104135473904E-008
7.0822334E+003	6.6533555E+003	2.4864880E+003	7.1027993E+003	-2.0491692E+001	2.713088566198712E+001	-2.3130456E-003	1.4432389E-007	9.0378169E-003	1.1075853E-003	1.000000000000000E+000	13	1.3697928E-001	1.9285253E-005	-3.882902430604973E-006	5.8547192E-004	1.3188082E-004	4.9286420E-005	1.4078956E-004	2.0491692E+001	-9.911052440555777E-009
6.3077344E+003	6.8081328E+003	2.4710620E+003	7.2427080E+003	-1.9948738E+001	2.776554089211277E+001	-2.3013577E-003	-4.6816431E-006	1.0210878E-002	1.1885801E-003	1.000000000000000E+000	13	1.3739686E-001	1.8970371E-005	-3.881376318413838E-006	5.8547192E-004	1.2978548E-004	4.7106591E-005	1.3806991E-004	1.9948738E+001	1.526112191135280E-009
5.6210552E+003	6.9546895E+003	2.4638672E+003	7.3782349E+003	-1.9507923E+001	2.846628983205301E+001	-2.2610379E-003	2.1182982E-006	1.1491719E-002	1.2814882E-003	1.000000000000000E+000	13	1.3764566E-001	1.8655635E-005	-3.869620191208191E-006	5.0530297E-004	1.2775350E-004	4.5259771E-005	1.3553377E-004	1.9507923E+001	1.175612720564713E-008
5.0116035E+003	7.0960464E+003	2.4637437E+003	7.5115850E+003	-1.9146975E+001	2.922670397488400E+001	-2.2160579E-003	3.3858446E-006	1.2889851E-002	1.3866784E-003	1.000000000000000E+000	13	1.3778353E-001	1.8342804E-005	-3.853986332995696E-006	5.8547192E-004	1.2576312E-004	4.3664892E-005	1.3312770E-004	1.9146975E+001	1.563385821249442E-008
4.4664292E+003	7.2307129E+003	2.4729121E+003	7.6418911E+003	-1.8880747E+001	2.998668867765082E+001	-2.2125163E-003	9.7378665E-007	1.4409568E-002	1.5089216E-003	1.000000000000000E+000	13	1.3783875E-001	1.8037257E-005	-3.839322214238640E-006	5.0530297E-004	1.2381676E-004	4.2345473E-005	1.3085766E-004	1.8880747E+001	1.466411875705656E-008
3.9812742E+003	7.3617734E+003	2.4942537E+003	7.7728379E+003	-1.8716972E+001	3.074568191370054E+001	-2.2188725E-003	1.0446267E-006	1.6027190E-002	1.6503629E-003	1.000000000000000E+000	13	1.3783336E-001	1.7732695E-005	-3.835584797769495E-006	8.2597876E-004	1.2184935E-004	4.1283962E-005	1.2865313E-004	1.8716972E+001	3.737416469145135E-009
3.5465955E+003	7.4896865E+003	2.5266565E+003	7.9043911E+003	-1.8641897E+001	3.150495037640212E+001	-2.2226754E-003	-1.1530951E-006	1.7760789E-002	1.8147543E-003	1.000000000000000E+000	13	1.3780573E-001	1.7434073E-005	-3.836589492037724E-006	6.6564087E-004	1.1987450E-004	4.0439838E-005	1.2651196E-004	1.8641897E+001	-1.004694268229027E-009
3.1610112E+003	7.6138423E+003	2.5726326E+003	8.0367300E+003	-1.8669538E+001	3.226469486584392E+001	-2.2318466E-003	1.6522735E-006	1.9571150E-002	2.0054558E-003	1.000000000000000E+000	13	1.3774109E-001	1.7138947E-005	-3.823829352642734E-006	4.2513400E-004	1.1788135E-004	3.9830797E-005	1.2442871E-004	1.8669538E+001	1.276013939498972E-008
2.8172952E+003	7.7341001E+003	2.6320051E+003	8.1696851E+003	-1.8794043E+001	3.302395450189942E+001	-2.2284540E-003	1.7939321E-006	2.1463525E-002	2.2277369E-003	1.000000000000000E+000	13	1.3766262E-001	1.6850419E-005	-3.809690318024044E-006	1.0664855E-003	1.1587751E-004	3.9434479E-005	1.2240374E-004	1.8794043E+001	1.413903461869016E-008
2.5108032E+003	7.8587642E+003	2.7062126E+003	8.3116641E+003	-1.9001455E+001	3.378370547133090E+001	-2.2148835E-003	2.4929307E-006	2.3423163E-002	2.4830955E-003	1.000000000000000E+000	13	1.3758074E-001	1.6552731E-005	-3.804114169871935E-006	4.2513400E-004	1.1375704E-004	3.9172923E-005	1.2031285E-004	1.9001455E+001	5.576148152108354E-009
2.2378516E+003	7.9812808E+003	2.7995452E+003	8.4580313E+003	-1.9329029E+001	3.454393758741207E+001	-2.2171577E-003	2.6327236E-006	2.5403958E-002	2.7831574E-003	1.000000000000000E+000	13	1.3748528E-001	1.6254999E-005	-3.815605594379501E-006	8.2597876E-004	1.1156655E-004	3.9133520E-005	1.1823083E-004	1.9329029E+001	-1.149142450756505E-008
1.9956389E+003	8.1033706E+003	2.9059080E+003	8.6086533E+003	-1.9728079E+001	3.530368885018834E+001	-2.2065511E-003	1.2719473E-006	2.7444564E-002	3.1271563E-003	1.000000000000000E+000	13	1.3739277E-001	1.5959846E-005	-3.802546978791263E-006	3.4496505E-004	1.0934407E-004	3.9211311E-005	1.1616218E-004	1.9728079E+001	1.305861558823711E-008
1.7782927E+003	8.2312764E+003	3.0344570E+003	8.7727900E+003	-2.0236389E+001	3.606295133955427E+001	-2.2098320E-003	2.8432987E-006	2.9494150E-002	3.5287621E-003	1.000000000000000E+000	13	1.3730022E-001	1.5650690E-005	-3.808922975900360E-006	9.0614770E-004	1.0695269E-004	3.9428069E-005	1.1398882E-004	2.0236389E+001	-6.375997109096698E-009
1.5855076E+003	8.3619893E+003	3.1800308E+003	8.9462539E+003	-2.0821608E+001	3.682271289567143E+001	-2.2077628E-003	1.6727346E-006	3.1566069E-002	3.9884183E-003	1.000000000000000E+000	13	1.3721310E-001	1.5337491E-005	-3.797567663904551E-006	5.0530297E-004	1.0447856E-004	3.9732775E-005	1.1177863E-004	2.0821608E+001	1.135531199580942E-008
1.4118373E+003	8.4966406E+003	3.3472136E+003	9.1321816E+003	-2.1501740E+001	3.758220999836340E+001	-2.2183135E-003	1.0016983E-006	3.3678450E-002	4.5244922E-003	1.000000000000000E+000	13	1.3711995E-001	1.5015026E-005	-3.791009796401770E-006	1.3069925E-003	1.0188216E-004	4.0136023E-005	1.0950286E-004	2.1501740E+001	6.557867502780777E-009
1.2587914E+003	8.6370010E+003	3.5344751E+003	9.3322188E+003	-2.2255594E+001	3.834196907447767E+001	-2.2088627E-003	7.8545389E-007	3.5771850E-002	5.1312298E-003	1.000000000000000E+000	13	1.3703619E-001	1.4684202E-005	-3.776996850220990E-006	1.3069925E-003	9.9172939E-005	4.0584022E-005	1.0715565E-004	2.2255594E+001	1.401294618078007E-008
1.1217948E+003	8.7812891E+003	3.7463655E+003	9.5470566E+003	-2.3104572E+001	3.910044209714397E+001	-2.2233466E-003	3.4752411E-006	3.7870109E-002	5.8314675E-003	1.000000000000000E+000	13	1.3695371E-001	1.4345124E-005	-3.787161294227872E-006	6.6564087E-004	9.6342803E-005	4.1102772E-005	1.0474432E-004	2.3104572E+001	-1.016444400688183E-008
1.0003201E+003	8.9353594E+003	3.9843535E+003	9.7834414E+003	-2.4032501E+001	3.985971194659214E+001	-2.2107826E-003	1.0258814E-006	3.9932203E-002	6.6230148E-003	1.000000000000000E+000	13	1.3687281E-001	1.3990252E-005	-3.782577418826476E-006	2.6479611E-004	9.3353097E-005	4.1626943E-005	1.0221352E-004	2.4032501E+001	4.583875401395765E-009
8.9142657E+002	9.0978428E+003	4.2461074E+003	1.0039929E+004	-2.5019209E+001	4.061741096919286E+001	-2.2087507E-003	-2.0423013E-006	4.2047825E-002	7.5208037E-003	1.000000000000000E+000	13	1.3679828E-001	1.3625423E-005	-3.772722624671107E-006	8.2597876E-004	9.0256224E-005	4.2124011E-005	9.9602301E-005	2.5019209E+001	9.854794155368526E-009
7.9423773E+002	9.2695488E+003	4.5403813E+003	1.0321802E+004	-2.6096392E+001	4.137696447197231E+001	-2.2145293E-003	-1.5707213E-006	4.4134405E-002	8.5398639E-003	1.000000000000000E+000	13	1.3673051E-001	1.3246768E-005	-3.781708051519849E-006	9.8631659E-004	8.7005668E-005	4.2616844E-005	9.6882308E-005	2.6096392E+001	-8.985426848741526E-009
7.0750946E+002	9.4488398E+003	4.8659829E+003	1.0628188E+004	-2.7247654E+001	4.213948192147654E+001	-2.2166171E-003	-1.5222940E-006	4.6229299E-002	9.6903630E-003	1.000000000000000E+000	13	1.3665630E-001	1.2857912E-005	-3.769638616827630E-006	9.8631659E-004	8.3648869E-005	4.3077664E-005	9.4089417E-005	2.7247654E+001	1.206943469221876E-008
6.3100964E+002	9.6405234E+003	5.2218813E+003	1.0963929E+004	-2.8442612E+001	4.289744065082050E+001	-2.2215757E-003	-1.7907657E-006	4.8301112E-002	1.0956674E-002	1.000000000000000E+000	13	1.3659753E-001	1.2458812E-005	-3.760051332615123E-006	3.4496505E-004	8.0198864E-005	4.3440476E-005	9.1208181E-005	2.8442612E+001	9.587284212506924E-009
5.6233929E+002	9.8459854E+003	5.6152295E+003	1.1334647E+004	-2.9696392E+001	4.365390226012096E+001	-2.2158530E-003	-1.5503095E-006	5.0402746E-002	1.2370099E-002	1.000000000000000E+000	13	1.3653848E-001	1.2046115E-005	-3.756208969656478E-006	1.3871614E-003	7.6637822E-005	4.3707045E-005	8.8225061E-005	2.9696392E+001	3.842362958645637E-009
5.0144415E+002	1.0062194E+004	6.0463223E+003	1.1739070E+004	-3.1001446E+001	4.441119138940121E+001	-2.2291252E-003	1.3165529E-006	5.2493587E-002	1.3925841E-002	1.000000000000000E+000	13	1.3648109E-001	1.1626226E-005	-3.750477418185281E-006	3.4496505E-004	7.3017225E-005	4.3875683E-005	8.5185624E-005	3.1001446E+001	5.731551471196806E-009
4.4685895E+002	1.0292905E+004	6.5258706E+003	1.2187325E+004	-3.2375366E+001	4.516793518536724E+001	-2.2170832E-003	2.9320108E-007	5.4577198E-002	1.5648451E-002	1.000000000000000E+000	13	1.3642713E-001	1.1194182E-005	-3.752879956299769E-006	5.0530297E-004	6.9298076E-005	4.3936117E-005	8.2052458E-005	3.2375366E+001	-2.402538114488643E-009
3.9808920E+002	1.0541704E+004	7.0542837E+003	1.2684260E+004	-3.3789597E+001	4.593073476827703E+001	-2.2199724E-003	2.5244335E-006	5.6674380E-002	1.7529212E-002	1.000000000000000E+000	13	1.3638471E-001	1.0752280E-005	-3.759326602492946E-006	7.4580981E-004	6.5521002E-005	4.3845263E-005	7.8837867E-005	3.3789597E+001	-6.446646193176522E-009
3.5465955E+002	1.0810417E+004	7.6286846E+003	1.3231098E+004	-3.5209816E+001	4.669094245770248E+001	-2.2253783E-003	-3.2596345E-006	5.8824580E-002	1.9555386E-002	1.000000000000000E+000	13	1.3633943E-001	1.0304469E-005	-3.755947835530479E-006	9.8631659E-004	6.1751954E-005	4.3577056E-005	7.5579519E-005	3.5209816E+001	3.378766962466695E-009
3.1631586E+002	1.1096391E+004	8.2564053E+003	1.3831057E+004	-3.6651543E+001	4.744790553365601E+001	-2.2230854E-003	-2.6974018E-007	6.0940798E-002	2.1715980E-002	1.000000000000000E+000	13	1.3629705E-001	9.8544206E-006	-3.761511361125713E-006	3.4496505E-004	5.8005746E-005	4.3159886E-005	7.2301053E-005	3.6651543E+001	-5.563525595233485E-009
2.8189429E+002	1.1403009E+004	8.9532793E+003	1.4497925E+004	-3.8137875E+001	4.820342092952342E+001	-2.2213706E-003	2.9382202E-006	6.3059673E-002	2.4049403E-002	1.000000000000000E+000	13	1.3625729E-001	9.3983999E-006	-3.753653463811601E-006	9.0614770E-004	5.4251002E-005	4.2596159E-005	6.8975387E-005	3.8137875E+001	7.857897314112018E-009
2.5104436E+002	1.1739060E+004	9.7209648E+003	1.5241479E+004	-3.9627720E+001	4.895990120546776E+001	-2.2169526E-003	3.5095258E-007	6.5216921E-002	2.6529241E-002	1.000000000000000E+000	13	1.3622160E-001	8.9375581E-006	-3.747712133899692E-006	7.4580981E-004	5.0533468E-005	4.1846117E-005	6.5610431E-005	3.9627720E+001	5.941329911909016E-009
2.2392513E+002	1.2092952E+004	1.0551821E+004	1.6049313E+004	-4.1106636E+001	4.972273953504919E+001	-2.2090306E-003	2.9381999E-006	6.7358106E-002	2.9116012E-002	1.000000000000000E+000	13	1.3619532E-001	8.4860530E-006	-3.744134310069222E-006	9.0614770E-004	4.6948255E-005	4.0965147E-005	6.2307961E-005	4.1106636E+001	3.577823830470039E-009
1.9955299E+002	1.2481865E+004	1.1462525E+004	1.6946576E+004	-4.2562328E+001	5.048217938441667E+001	-2.2197114E-003	1.0853540E-006	6.9579542E-002	3.1833049E-002	1.000000000000000E+000	13	1.3616896E-001	8.0351901E-006	-3.751649157733495E-006	5.0530297E-004	4.3462584E-005	3.9913186E-005	5.9008969E-005	4.2562328E+001	-7.514847664272988E-009
1.7778128E+002	1.2914730E+004	1.2474638E+004	1.7955691E+004	-4.4006950E+001	5.124925608749618E+001	-2.2034755E-003	3.4060508E-006	7.1763925E-002	3.4638397E-002	1.000000000000000E+000	13	1.3613838E-001	7.5819066E-006	-3.745006658274646E-006	-1.3604865E-004	4.0057243E-005	3.8692222E-005	5.5692646E-005	4.4006950E+001	6.642499458848942E-009
1.5842838E+002	1.3365931E+004	1.3572375E+004	1.9048818E+004	-4.5439083E+001	5.201574135063856E+001	-2.2088813E-003	-2.6296518E-006	7.4016973E-002	3.7575688E-002	1.000000000000000E+000	13	1.3611469E-001	7.1455711E-006	-3.749880245331762E-006	7.4580981E-004	3.6835208E-005	3.7404152E-005	5.2496696E-005	4.5439083E+001	-4.873587057116019E-009
1.4131134E+002	1.3863540E+004	1.4770032E+004	2.0257137E+004	-4.6813286E+001	5.276791575967218E+001	-2.2186304E-003	1.3839566E-007	7.6253831E-002	4.0538572E-002	1.000000000000000E+000	13	1.3609487E-001	6.7183664E-006	-3.750973816270996E-006	4.2513400E-004	3.3784541E-005	3.5993602E-005	4.9365317E-005	4.6813286E+001	-1.093570939234652E-009
1.2584569E+002	1.4408371E+004	1.6102854E+004	2.1607939E+004	-4.8178734E+001	5.352343035556260E+001	-2.2176239E-003	2.4870330E-006	7.8537837E-002	4.3617215E-002	1.000000000000000E+000	13	1.3607614E-001	6.2975064E-006	-3.747764386494573E-006	5.0530297E-004	3.0859450E-005	3.4488643E-005	4.6279285E-005	4.8178734E+001	3.209429776423891E-009
1.1218996E+002	1.5001940E+004	1.7532326E+004	2.3074676E+004	-4.9447285E+001	5.426884140430775E+001	-2.2125721E-003	9.1751315E-007	8.0914550E-002	4.6712648E-002	1.000000000000000E+000	13	1.3606703E-001	5.8968126E-006	-3.743140333876782E-006	5.8547192E-004	2.8175797E-005	3.2928227E-005	4.3337554E-005	4.9447285E+001	4.624052617790183E-009
1.0003201E+002	1.5669711E+004	1.9118295E+004	2.4719406E+004	-5.0661316E+001	5.502867477374821E+001	-2.2212216E-003	3.4917191E-006	8.3220817E-002	4.9779922E-002	1.000000000000000E+000	13	1.3604951E-001	5.5037531E-006	-3.739902680018127E-006	1.0664855E-003	2.5643951E-005	3.1287662E-005	4.0454048E-005	5.0661316E+001	3.237653858655435E-009
8.9115974E+001	1.6382018E+004	2.0847508E+004	2.6513941E+004	-5.1839661E+001	5.579473403679731E+001	-2.2181829E-003	-1.7668006E-007	8.5666381E-002	5.2962702E-002	1.000000000000000E+000	13	1.3603856E-001	5.1308311E-006	-3.742425014793753E-006	7.4580981E-004	2.3303373E-005	2.9655523E-005	3.7716007E-005	5.1839661E+001	-2.522334775625841E-009
7.9415527E+001	1.7182865E+004	2.2746738E+004	2.8507279E+004	-5.2932632E+001	5.681024405834614E+001	-2.2177170E-003	9.3685024E-008	8.8103995E-002	5.6094758E-002	1.000000000000000E+000	14	1.3650003E-001	4.7882518E-006	-3.736625516561794E-006	4.2513400E-004	2.1143849E-005	2.7990302E-005	3.5078760E-005	5.2932632E+001	5.799498231959223E-009
7.0838745E+001	1.8056764E+004	2.4791555E+004	3.0670311E+004	-5.3932526E+001	5.756136900067213E+001	-2.2255089E-003	9.7778859E-008	9.0624481E-002	5.9212949E-002	1.000000000000000E+000	14	1.3641806E-001	4.4478866E-006	-3.739235920016881E-006	9.0614770E-004	1.9195684E-005	2.6355267E-005	3.2604821E-005	5.3932526E+001	-2.610403455087854E-009
