EC-Lab ASCII FILE
Nb header lines : 59                          

Potentio Electrochemical Impedance Spectroscopy

Run on channel : 1 (SN 20909)
User : 
CE vs. WE compliance from -10 V to 10 V
Electrode connection : standard
Ewe ctrl range : min = -10.00 V, max = 10.00 V
Acquisition started on : 05/08/2020 13:14:57
Saved on :
	File : DE_104_1_30.mpr
	Directory : P:\Chemistry\Data\VMP3\Kyler\DOE\DE_104\
	Host : 10.0.4.64
Device : VMP3 (SN 1432)
Address : USB
EC-Lab for windows v11.33 (software)
Internet server v11.32 (firmware)
Command interpretor v11.33 (firmware)
Electrode material : 
Initial state : 
Electrolyte : 
Comments : 
Electrode surface area : 0.001 cm²
Characteristic mass : 0.001 g
Equivalent Weight : 0.000 g/eq.
Density : 0.000 g/cm3
Record Analogic IN 1
Cycle Definition : Charge/Discharge alternance
Mode                Single sine         
E (V)               0.0000              
vs.                 Eoc                 
tE (h:m:s)          0:00:0.0000         
record              0                   
dI                  1.000               
unit dI             mA                  
dt (s)              0.000               
fi                  1.000               
unit fi             MHz                 
ff                  1.000               
unit ff             Hz                  
Nd                  20                  
Points              per decade          
spacing             Logarithmic         
Va (mV)             128.0               
pw                  0.50                
Na                  3                   
corr                0                   
E range min (V)     -10.000             
E range max (V)     10.000              
I Range             Auto                
Bandwidth           5                   
nc cycles           0                   
goto Ns'            0                   
nr cycles           0                   
inc. cycle          1                   

freq/Hz	Re(Z)/Ohm	-Im(Z)/Ohm	|Z|/Ohm	Phase(Z)/deg	time/s	<Ewe>/V	<I>/mA	Cs/µF	Cp/µF	cycle_number	I Range	|Ewe|/V	|I|/A	(Q-Qo)/mA.h	Analog IN 1/V	Re(Y)/Ohm-1	Im(Y)/Ohm-1	|Y|/Ohm-1	Phase(Y)/deg	dq/mA.h	
1.0000186E+006	3.8053094E+002	4.3164484E+002	5.7543121E+002	-4.8601131E+001	1.607490262977080E+000	-7.0665635E-002	-3.0747942E-005	3.6871052E-004	2.0746831E-004	1.000000000000000E+000	12	9.1373530E-004	1.5879141E-006	-2.271957282464933E-008	-5.8283542E-005	1.1492200E-003	1.3035861E-003	1.7378272E-003	4.8601131E+001	-2.271957282464933E-008
8.9124669E+005	3.9959314E+002	4.5489511E+002	6.0547852E+002	-4.8702984E+001	2.204497277998598E+000	-7.0131749E-002	-2.4514158E-005	3.9256443E-004	2.2158278E-004	1.000000000000000E+000	12	1.5702226E-003	2.5933580E-006	-2.124911387651688E-008	2.1918953E-005	1.0899850E-003	1.2408342E-003	1.6515863E-003	4.8702984E+001	1.470458948132444E-009
7.9433269E+005	4.2844955E+002	4.9439752E+002	6.5421552E+002	-4.9087490E+001	2.800480559671996E+000	-6.9679379E-002	-1.9101566E-005	4.0526717E-004	2.3144740E-004	1.000000000000000E+000	12	1.9833869E-003	3.0317026E-006	-3.798304545762221E-008	-2.9889104E-004	1.0010552E-003	1.1551400E-003	1.5285483E-003	4.9087490E+001	-1.673393158110533E-008
7.0794981E+005	4.5840363E+002	5.3423718E+002	7.0394830E+002	-4.9368668E+001	3.395492454554187E+000	-6.9248915E-002	-1.6395161E-005	4.2080757E-004	2.4236517E-004	1.000000000000000E+000	12	1.8063866E-003	2.5660786E-006	-7.746774029682354E-008	-2.9889104E-004	9.2505279E-004	1.0780839E-003	1.4205589E-003	4.9368668E+001	-3.948469483920133E-008
6.3095681E+005	4.8962445E+002	5.8378113E+002	7.6192682E+002	-5.0013023E+001	3.990478242834797E+000	-6.8865016E-002	-2.9739753E-005	4.3208624E-004	2.5365537E-004	1.000000000000000E+000	12	7.4940576E-004	9.8356657E-007	-6.853105313651516E-008	3.4272892E-004	8.4340578E-004	1.0055960E-003	1.3124620E-003	5.0013023E+001	8.936687160308382E-009
5.6234225E+005	5.1684955E+002	6.3680847E+002	8.2015759E+002	-5.0936359E+001	4.585482431080891E+000	-6.8524227E-002	-2.8619859E-005	4.4443741E-004	2.6793758E-004	1.000000000000000E+000	12	1.4299951E-003	1.7435614E-006	-4.114404276474993E-008	-2.1868854E-004	7.6836842E-004	9.4670401E-004	1.2192779E-003	5.0936359E+001	2.738701037176523E-008
5.0120619E+005	5.5580182E+002	7.0172040E+002	8.9516876E+002	-5.1618805E+001	5.182494059466990E+000	-6.8228811E-002	-1.4976535E-005	4.5252193E-004	2.7807246E-004	1.000000000000000E+000	12	4.8821578E-003	5.4538964E-006	-3.662196868764214E-008	2.1918953E-005	6.9360167E-004	8.7569776E-004	1.1171078E-003	5.1618805E+001	4.522074077107794E-009
4.4668572E+005	5.9378461E+002	7.6588135E+002	9.6909979E+002	-5.2213730E+001	5.777494167705299E+000	-6.7977034E-002	-2.0967564E-005	4.6521804E-004	2.9056449E-004	1.000000000000000E+000	12	9.6602356E-003	9.9682566E-006	1.574140871404476E-008	-5.3949852E-004	6.3225452E-004	8.1550103E-004	1.0318855E-003	5.2213730E+001	5.236337740168689E-008
3.9810347E+005	6.4089532E+002	8.3397845E+002	1.0517922E+003	-5.2458462E+001	6.373492356011411E+000	-6.7808740E-002	-3.2165655E-005	4.7936838E-004	3.0138323E-004	1.000000000000000E+000	12	1.5844677E-002	1.5064455E-005	7.072247483504018E-008	2.1918953E-005	5.7933154E-004	7.5386732E-004	9.5075811E-004	5.2458462E+001	5.498106612099542E-008
3.5480997E+005	6.9004462E+002	9.0920007E+002	1.1414054E+003	-5.2803032E+001	6.969490944320569E+000	-6.7683965E-002	-2.8227449E-005	4.9336109E-004	3.1304295E-004	1.000000000000000E+000	12	2.3433788E-002	2.0530644E-005	1.464956994681820E-008	1.8232394E-004	5.2966014E-004	6.9787819E-004	8.7611290E-004	5.2803032E+001	-5.607290488822199E-008
3.1622997E+005	7.4674878E+002	9.8577252E+002	1.2366815E+003	-5.2855106E+001	7.564476305939024E+000	-6.7632310E-002	-2.3244114E-005	5.1055249E-004	3.2439793E-004	1.000000000000000E+000	12	3.2612540E-002	2.6371008E-005	3.155254638639033E-008	-3.7909354E-004	4.8826859E-004	6.4455648E-004	8.0861564E-004	5.2855106E+001	1.690297643957213E-008
2.8183453E+005	8.1007813E+002	1.0647000E+003	1.3378387E+003	-5.2734268E+001	8.159481454204069E+000	-6.7601390E-002	-1.9865853E-005	5.3039409E-004	3.3592756E-004	1.000000000000000E+000	12	4.3370485E-002	3.2418320E-005	4.003174586210258E-008	-1.3848604E-004	4.5260502E-004	5.9486675E-004	7.4747426E-004	5.2734268E+001	8.479199475712245E-009
2.5118764E+005	8.8268152E+002	1.1486675E+003	1.4486420E+003	-5.2459900E+001	8.754491162457271E+000	-6.7518838E-002	-3.7588786E-006	5.5160420E-004	3.4681195E-004	1.000000000000000E+000	12	5.5883098E-002	3.8576196E-005	-6.979639488579575E-008	-5.8283542E-005	4.2061225E-004	5.4735894E-004	6.9030171E-004	5.2459900E+001	-1.098281407478983E-007
2.2387173E+005	9.6103149E+002	1.2329619E+003	1.5632583E+003	-5.2065384E+001	9.349477484036470E+000	-6.7444287E-002	-4.4493850E-006	5.7659543E-004	3.5868154E-004	1.000000000000000E+000	12	7.0081919E-002	4.4830671E-005	-4.770297350801734E-008	5.0313392E-004	3.9325672E-004	5.0453137E-004	6.3968956E-004	5.2065384E+001	2.209342137777841E-008
1.9954350E+005	1.0496537E+003	1.3198215E+003	1.6863279E+003	-5.1504780E+001	9.946477432415122E+000	-6.7486279E-002	-4.8813468E-005	6.0432055E-004	3.7018067E-004	1.000000000000000E+000	12	8.6251907E-002	5.1147766E-005	3.530739258995810E-008	-1.3848604E-004	3.6911527E-004	4.6412097E-004	5.9300452E-004	5.1504780E+001	8.301036609797545E-008
1.7783180E+005	1.1465951E+003	1.4082808E+003	1.8160217E+003	-5.0848183E+001	1.054147434068727E+001	-6.7430317E-002	-1.9958707E-005	6.3550862E-004	3.8217113E-004	1.000000000000000E+000	12	1.0444170E-001	5.7511261E-005	-8.990982200217938E-008	2.1918953E-005	3.4767060E-004	4.2701897E-004	5.5065419E-004	5.0848183E+001	-1.252172145921375E-007
1.5848613E+005	1.2529714E+003	1.4967894E+003	1.9520031E+003	-5.0067097E+001	1.100148945584078E+001	-6.7374676E-002	-8.1365648E-008	6.7091599E-004	3.9448330E-004	1.000000000000000E+000	12	1.2461513E-001	6.3839616E-005	-1.346443983295305E-007	5.0313392E-004	3.2883664E-004	3.9282555E-004	5.1229430E-004	5.0067097E+001	-4.473457632735112E-008
1.4125594E+005	1.3674656E+003	1.5861343E+003	2.0942263E+003	-4.9234150E+001	1.159647892412613E+001	-6.7353673E-002	-1.6673725E-005	7.1035174E-004	4.0747985E-004	1.000000000000000E+000	12	1.2932532E-001	6.1753264E-005	-2.122946259498551E-007	2.6252642E-004	3.1179501E-004	3.6165354E-004	4.7750332E-004	4.9234150E+001	-7.765022762032459E-008
1.2590930E+005	1.4906055E+003	1.6737706E+003	2.2412971E+003	-4.8312782E+001	1.219348876576987E+001	-6.7316547E-002	-1.5741098E-005	7.5520773E-004	4.2117192E-004	1.000000000000000E+000	12	1.3038157E-001	5.8172369E-005	-3.304290677745788E-007	2.1918953E-005	2.9673165E-004	3.3319392E-004	4.4617022E-004	4.8312782E+001	-1.181344418247237E-007
1.1220494E+005	1.6238757E+003	1.7628896E+003	2.3968213E+003	-4.7350452E+001	1.278947543408140E+001	-6.7357928E-002	-3.6588615E-005	8.0460560E-004	4.3527325E-004	1.000000000000000E+000	12	1.3019663E-001	5.4320542E-005	-2.766922728034034E-007	-5.8283542E-005	2.8267119E-004	3.0686957E-004	4.1721927E-004	4.7350452E+001	5.373679497117539E-008
1.0000371E+005	1.7661169E+003	1.8481084E+003	2.5563008E+003	-4.6299576E+001	1.338449218237656E+001	-6.7248747E-002	-4.7861660E-005	8.6114556E-004	4.5009845E-004	1.000000000000000E+000	12	1.3009256E-001	5.0890943E-005	-3.559545158012851E-007	-2.1868854E-004	2.7026856E-004	2.8281572E-004	3.9119026E-004	4.6299576E+001	-7.926224299788170E-008
8.9129305E+004	1.9171461E+003	1.9305126E+003	2.7207219E+003	-4.5199039E+001	1.398149423740688E+001	-6.7196012E-002	-3.3901113E-005	9.2496857E-004	4.6569752E-004	1.000000000000000E+000	12	1.2999813E-001	4.7780748E-005	-4.528929247959847E-007	3.4272892E-004	2.5899234E-004	2.6079803E-004	3.6754951E-004	4.5199039E+001	-9.693840899469960E-008
7.9433273E+004	2.0754990E+003	2.0098573E+003	2.8891560E+003	-4.4079475E+001	1.457747749236296E+001	-6.7180946E-002	-2.4382529E-005	9.9690200E-004	4.8243735E-004	1.000000000000000E+000	12	1.2965381E-001	4.4876015E-005	-4.561162630638541E-007	-3.7909354E-004	2.4864546E-004	2.4078156E-004	3.4612184E-004	4.4079475E+001	-3.223338267869389E-009
7.0794977E+004	2.2438572E+003	2.0857734E+003	3.0635513E+003	-4.2908943E+001	1.517347805402824E+001	-6.7223325E-002	-2.4606590E-005	1.0778307E-003	4.9961387E-004	1.000000000000000E+000	12	1.2951234E-001	4.2275231E-005	-4.122964672537314E-007	-2.1868854E-004	2.3908091E-004	2.2223724E-004	3.2641855E-004	4.2908943E+001	4.381979581012272E-008
6.3093828E+004	2.4208110E+003	2.1559211E+003	3.2416543E+003	-4.1687557E+001	1.576948925564648E+001	-6.7179710E-002	-5.4543481E-005	1.1700391E-003	5.1752664E-004	1.000000000000000E+000	12	1.2939130E-001	3.9915205E-005	-4.323962297932869E-007	2.1918953E-005	2.3037085E-004	2.0516322E-004	3.0848448E-004	4.1687557E+001	-2.009976253955555E-008
5.6237012E+004	2.6027007E+003	2.2228320E+003	3.4227231E+003	-4.0498928E+001	1.622948815752170E+001	-6.7175478E-002	-4.3382483E-005	1.2731843E-003	5.3698360E-004	1.000000000000000E+000	12	1.3972802E-001	4.0823641E-005	-4.662793280185724E-007	2.6252642E-004	2.2216758E-004	1.8974186E-004	2.9216503E-004	4.0498928E+001	-3.388309822528551E-008
5.0122477E+004	2.7924121E+003	2.2798425E+003	3.6048921E+003	-3.9229645E+001	1.682449559911038E+001	-6.7160748E-002	-2.2124414E-005	1.3927808E-003	5.5706763E-004	1.000000000000000E+000	12	1.3009270E-001	3.6087818E-005	-4.990950787418518E-007	3.4272892E-004	2.1487949E-004	1.7543664E-004	2.7740080E-004	3.9229645E+001	-3.281575072327941E-008
4.4666715E+004	2.9874458E+003	2.3344944E+003	3.7913977E+003	-3.8005310E+001	1.728349194090697E+001	-6.7169756E-002	-3.1568325E-005	1.5263120E-003	5.7866907E-004	1.000000000000000E+000	12	1.3766748E-001	3.6310481E-005	-5.161540416657746E-007	3.4272892E-004	2.0782671E-004	1.6240304E-004	2.6375498E-004	3.8005310E+001	-1.705896292392280E-008
3.9814063E+004	3.1844487E+003	2.3790940E+003	3.9750222E+003	-3.6763321E+001	1.787848020918318E+001	-6.7139640E-002	-1.6973370E-005	1.6802427E-003	6.0188863E-004	1.000000000000000E+000	12	1.2970653E-001	3.2630393E-005	-5.218286497254464E-007	-1.3848604E-004	2.0153716E-004	1.5056792E-004	2.5157092E-004	3.6763321E+001	-5.674608059671787E-009
3.5480996E+004	3.3893296E+003	2.4187217E+003	4.1638647E+003	-3.5512733E+001	1.833849815101712E+001	-6.7181520E-002	-3.1045969E-005	1.8545496E-003	6.2577327E-004	1.000000000000000E+000	12	1.3486928E-001	3.2390410E-005	-5.137048238406755E-007	-2.1868854E-004	1.9548820E-004	1.3950595E-004	2.4016151E-004	3.5512733E+001	8.123825884770913E-009
3.1621143E+004	3.5936484E+003	2.4499739E+003	4.3493311E+003	-3.4284252E+001	1.879747387944371E+001	-6.7161605E-002	-3.8567596E-005	2.0543816E-003	6.5186713E-004	1.000000000000000E+000	12	1.3917860E-001	3.2000004E-005	-4.897569550636641E-007	4.2293142E-004	1.8997247E-004	1.2951394E-004	2.2992042E-004	3.4284252E+001	2.394786877701138E-008
2.8188096E+004	3.7963997E+003	2.4713701E+003	4.5299360E+003	-3.3063213E+001	1.939348033446004E+001	-6.7162633E-002	-4.2580417E-005	2.2846337E-003	6.7999866E-004	1.000000000000000E+000	12	1.2946355E-001	2.8579556E-005	-4.970435110024280E-007	-2.9889104E-004	1.8500685E-004	1.2043526E-004	2.2075367E-004	3.3063213E+001	-7.286555938763814E-009
2.5116910E+004	3.9999922E+003	2.4906077E+003	4.7120127E+003	-3.1908588E+001	2.015449375726166E+001	-6.7176633E-002	-9.7060520E-006	2.5441844E-003	7.1079819E-004	1.000000000000000E+000	13	1.2457768E-001	2.6438314E-005	-4.815453278468137E-007	5.0313392E-004	1.8015495E-004	1.1217406E-004	2.1222353E-004	3.1908588E+001	1.549818315561422E-008
2.2389027E+004	4.2070449E+003	2.5013806E+003	4.8945000E+003	-3.0734426E+001	2.061449052576791E+001	-6.7172587E-002	-3.4178295E-006	2.8418761E-003	7.4224628E-004	1.000000000000000E+000	13	1.3583937E-001	2.7753473E-005	-5.100150251960763E-007	1.8232394E-004	1.7561454E-004	1.0441505E-004	2.0431096E-004	3.0734426E+001	-2.846969734926260E-008
1.9948783E+004	4.4118750E+003	2.5058684E+003	5.0738564E+003	-2.9595821E+001	2.121049188743928E+001	-6.7174397E-002	-9.8125074E-006	3.1837977E-003	7.7657902E-004	1.000000000000000E+000	13	1.2983245E-001	2.5588515E-005	-5.613230329135049E-007	1.0212145E-004	1.7137476E-004	9.7337885E-005	1.9708874E-004	2.9595821E+001	-5.130800771742851E-008
1.7786895E+004	4.6125146E+003	2.5037766E+003	5.2482559E+003	-2.8494104E+001	2.167048446924309E+001	-6.7172945E-002	-8.3005916E-006	3.5737525E-003	8.1336522E-004	1.000000000000000E+000	13	1.3824043E-001	2.6340262E-005	-5.519932159311591E-007	2.1918953E-005	1.6745871E-004	9.0900357E-005	1.9053949E-004	2.8494104E+001	9.329816982345732E-009
1.5847686E+004	4.8104482E+003	2.4972883E+003	5.4200425E+003	-2.7435558E+001	2.226647916421643E+001	-6.7170314E-002	-4.5006441E-006	4.0214770E-003	8.5372420E-004	1.000000000000000E+000	13	1.2977768E-001	2.3944034E-005	-5.368043926611993E-007	2.1918953E-005	1.6374957E-004	8.5008687E-005	1.8450040E-004	2.7435558E+001	1.518882326995987E-008
1.4121879E+004	5.0031982E+003	2.4878430E+003	5.5876074E+003	-2.6438887E+001	2.272547537271748E+001	-6.7157127E-002	-7.5654002E-006	4.5300676E-003	8.9804654E-004	1.000000000000000E+000	13	1.3515702E-001	2.4188710E-005	-5.233960500496930E-007	5.0313392E-004	1.6024923E-004	7.9684010E-005	1.7896747E-004	2.6438887E+001	1.340834261150626E-008
1.2590932E+004	5.1886587E+003	2.4747219E+003	5.7486021E+003	-2.5498728E+001	2.318549147454905E+001	-6.7160897E-002	-5.5421428E-006	5.1078233E-003	9.4659493E-004	1.000000000000000E+000	13	1.3941902E-001	2.4252682E-005	-5.470715196856367E-007	-1.3848604E-004	1.5701119E-004	7.4886215E-005	1.7395534E-004	2.5498728E+001	-2.367546963594369E-008
1.1217711E+004	5.3692935E+003	2.4601711E+003	5.9060776E+003	-2.4616907E+001	2.378047803617665E+001	-6.7149952E-002	-5.2584592E-006	5.7670083E-003	1.0006516E-003	1.000000000000000E+000	13	1.2946232E-001	2.1920185E-005	-5.974079490820765E-007	-3.7909354E-004	1.5392843E-004	7.0528884E-005	1.6931711E-004	2.4616907E+001	-5.033642939643977E-008
1.0002229E+004	5.5419282E+003	2.4465637E+003	6.0579404E+003	-2.3819748E+001	2.423947997795767E+001	-6.7154482E-002	-7.6251436E-006	6.5037939E-003	1.0607911E-003	1.000000000000000E+000	13	1.3168764E-001	2.1738022E-005	-5.767720520652802E-007	-5.8283542E-005	1.5101180E-004	6.6666325E-005	1.6507260E-004	2.3819748E+001	2.063589701679629E-008
8.9149297E+003	5.7096465E+003	2.4338853E+003	6.2067593E+003	-2.3087387E+001	2.472191272091004E+001	-6.7150377E-002	-4.2972647E-006	7.3350333E-003	1.1279050E-003	1.000000000000000E+000	13	1.3331074E-001	2.1478316E-005	-5.813119386354325E-007	-5.8283542E-005	1.4821065E-004	6.3178639E-005	1.6111467E-004	2.3087387E+001	-4.539886570152352E-009
7.9439976E+003	5.8693208E+003	2.4240935E+003	6.3502090E+003	-2.2441160E+001	2.524798293254571E+001	-6.7136973E-002	-5.7437610E-006	8.2647866E-003	1.2043546E-003	1.000000000000000E+000	13	1.3444781E-001	2.1172187E-005	-5.654529510472155E-007	1.8232394E-004	1.4554987E-004	6.0113685E-005	1.5747514E-004	2.2441160E+001	1.585898758821707E-008
7.0822334E+003	6.0231616E+003	2.4193313E+003	6.4908892E+003	-2.1883913E+001	2.582485693329363E+001	-6.7121215E-002	-6.3503662E-006	9.2886919E-003	1.2904372E-003	1.000000000000000E+000	13	1.3521200E-001	2.0831045E-005	-5.609302024681206E-007	-5.8283542E-005	1.4296053E-004	5.7423145E-005	1.5406210E-004	2.1883913E+001	4.522748579094886E-009
6.3077344E+003	6.1720488E+003	2.4197957E+003	6.6294492E+003	-2.1408016E+001	2.645956301674596E+001	-6.7106448E-002	-3.6850618E-006	1.0427209E-002	1.3892184E-003	1.000000000000000E+000	13	1.3572770E-001	2.0473452E-005	-5.781918475568091E-007	2.6252642E-004	1.4043471E-004	5.5058426E-005	1.5084210E-004	2.1408016E+001	-1.726164508868850E-008
5.6210552E+003	6.3140747E+003	2.4272390E+003	6.7645420E+003	-2.1027620E+001	2.716025451666792E+001	-6.7100383E-002	-5.8370697E-006	1.1665134E-002	1.5018897E-003	1.000000000000000E+000	13	1.3602087E-001	2.0107920E-005	-5.687071719124409E-007	-1.3848604E-004	1.3798532E-004	5.3043936E-005	1.4782966E-004	2.1027620E+001	9.484675644368212E-009
5.0116035E+003	6.4517725E+003	2.4451504E+003	6.8995747E+003	-2.0756155E+001	2.792067441951804E+001	-6.7095369E-002	-5.2808659E-006	1.2987868E-002	1.6311893E-003	1.000000000000000E+000	13	1.3618192E-001	1.9737727E-005	-5.657123530293878E-007	-1.3848604E-004	1.3552967E-004	5.1364252E-005	1.4493646E-004	2.0756155E+001	2.994818883053086E-009
4.4664292E+003	6.5839019E+003	2.4694617E+003	7.0317852E+003	-2.0559849E+001	2.868069978895073E+001	-6.7098387E-002	7.0111116E-007	1.4429702E-002	1.7796344E-003	1.000000000000000E+000	13	1.3625553E-001	1.9377090E-005	-5.751586634981120E-007	6.6353887E-004	1.3315337E-004	4.9942595E-005	1.4221140E-004	2.0559849E+001	-9.446310468724240E-009
3.9812742E+003	6.7134639E+003	2.5064163E+003	7.1660811E+003	-2.0472704E+001	2.944070297171129E+001	-6.7092121E-002	-2.2441643E-006	1.5949419E-002	1.9511372E-003	1.000000000000000E+000	13	1.3625920E-001	1.9014466E-005	-5.884656757931326E-007	1.0212145E-004	1.3073240E-004	4.8807866E-005	1.3954629E-004	2.0472704E+001	-1.330701229502059E-008
3.5465955E+003	6.8402935E+003	2.5574849E+003	7.3027627E+003	-2.0500029E+001	3.020094079448609E+001	-6.7091472E-002	-6.7819815E-007	1.7546698E-002	2.1520243E-003	1.000000000000000E+000	13	1.3620840E-001	1.8651626E-005	-6.030780540439891E-007	1.8232394E-004	1.2826269E-004	4.7955531E-005	1.3693448E-004	2.0500029E+001	-1.461237825085648E-008
3.1610112E+003	6.9653569E+003	2.6165251E+003	7.4405913E+003	-2.0588608E+001	3.096070357724238E+001	-6.7091547E-002	-6.7262516E-007	1.9242842E-002	2.3796009E-003	1.000000000000000E+000	13	1.3613273E-001	1.8295956E-005	-6.175634475631442E-007	-1.3848604E-004	1.2581385E-004	4.7261772E-005	1.3439792E-004	2.0588608E+001	-1.448539351915516E-008
2.8172952E+003	7.0890732E+003	2.6939814E+003	7.5836992E+003	-2.0807734E+001	3.172092622666969E+001	-6.7094065E-002	-5.9422212E-007	2.0969747E-002	2.6461848E-003	1.000000000000000E+000	13	1.3603370E-001	1.7937644E-005	-6.242756695404145E-007	-1.3848604E-004	1.2326144E-004	4.6841673E-005	1.3186177E-004	2.0807734E+001	-6.712221977270240E-009
2.5108032E+003	7.2128813E+003	2.7867090E+003	7.7324902E+003	-2.1124125E+001	3.248067900943715E+001	-6.7095876E-002	-1.2923134E-006	2.2746565E-002	2.9543389E-003	1.000000000000000E+000	13	1.3591951E-001	1.7577715E-005	-6.116585290373121E-007	1.0212145E-004	1.2063408E-004	4.6607183E-005	1.2932444E-004	2.1124125E+001	1.261714050310233E-008
2.2378516E+003	7.3389297E+003	2.8958726E+003	7.8896113E+003	-2.1533726E+001	3.324093635220197E+001	-6.7095645E-002	-2.2094957E-007	2.4558930E-002	3.3086976E-003	1.000000000000000E+000	13	1.3580194E-001	1.7212755E-005	-5.984972011861423E-007	1.8232394E-004	1.1790209E-004	4.6523055E-005	1.2674896E-004	2.1533726E+001	1.316132785116979E-008
1.9956389E+003	7.4644849E+003	3.0226921E+003	8.0532729E+003	-2.2045149E+001	3.400070446830068E+001	-6.7093000E-002	-8.9661751E-007	2.6384220E-002	3.7169547E-003	1.000000000000000E+000	13	1.3568355E-001	1.6848249E-005	-6.074233958243995E-007	1.0212145E-004	1.1509463E-004	4.6606780E-005	1.2417312E-004	2.2045149E+001	-8.926194638257192E-009
1.7782927E+003	7.5978799E+003	3.1680366E+003	8.2319033E+003	-2.2634342E+001	3.476093023773865E+001	-6.7095459E-002	1.0370229E-006	2.8250534E-002	4.1841432E-003	1.000000000000000E+000	13	1.3556412E-001	1.6468139E-005	-6.107272694559672E-007	2.1918953E-005	1.1212227E-004	4.6750865E-005	1.2147859E-004	2.2634342E+001	-3.303873631567674E-009
1.5855076E+003	7.7320024E+003	3.3338999E+003	8.4201396E+003	-2.3324833E+001	3.552068878049613E+001	-6.7093968E-002	-2.0351883E-006	3.0109202E-002	4.7202585E-003	1.000000000000000E+000	13	1.3545215E-001	1.6086688E-005	-5.973376416472497E-007	2.1918953E-005	1.0905696E-004	4.7023394E-005	1.1876287E-004	2.3324833E+001	1.338962780871753E-008
1.4118373E+003	7.8746699E+003	3.5202378E+003	8.6256885E+003	-2.4086222E+001	3.628219212326803E+001	-6.7101337E-002	-2.6007667E-006	3.2023109E-002	5.3335940E-003	1.000000000000000E+000	13	1.3533293E-001	1.5689522E-005	-5.992659054769420E-007	4.2293142E-004	1.0583878E-004	4.7313431E-005	1.1593277E-004	2.4086222E+001	-1.928263829692347E-009
1.2587914E+003	8.0209199E+003	3.7314863E+003	8.8464199E+003	-2.4948755E+001	3.704193039939855E+001	-6.7094900E-002	-4.8255606E-006	3.3883207E-002	6.0285535E-003	1.000000000000000E+000	13	1.3522764E-001	1.5286143E-005	-5.873489444015326E-007	1.0212145E-004	1.0249179E-004	4.7681151E-005	1.1304008E-004	2.4948755E+001	1.191696107540939E-008
1.1217948E+003	8.1737075E+003	3.9679204E+003	9.0859170E+003	-2.5894220E+001	3.780045574207907E+001	-6.7095123E-002	-2.2367665E-006	3.5755571E-002	6.8191793E-003	1.000000000000000E+000	13	1.3512205E-001	1.4871591E-005	-5.983562997206617E-007	1.8232394E-004	9.9010569E-005	4.8064609E-005	1.1006043E-004	2.5894220E+001	-1.100735531912906E-008
1.0003201E+003	8.3352881E+003	4.2319063E+003	9.3480508E+003	-2.6917347E+001	3.855967975150998E+001	-6.7092381E-002	-2.9852345E-006	3.7596300E-002	7.7050431E-003	1.000000000000000E+000	13	1.3501957E-001	1.4443606E-005	-5.996946377458193E-007	3.4272892E-004	9.5384647E-005	4.8427708E-005	1.0697417E-004	2.6917347E+001	-1.338338025157557E-009
8.9142657E+002	8.5057295E+003	4.5216108E+003	9.6328809E+003	-2.7994930E+001	3.931842872084235E+001	-6.7092776E-002	-8.3322919E-007	3.9485838E-002	8.6999219E-003	1.000000000000000E+000	13	1.3492867E-001	1.4007095E-005	-6.017894351851080E-007	4.2293142E-004	9.1664078E-005	4.8728252E-005	1.0381111E-004	2.7994930E+001	-2.094797439288781E-009
7.9423773E+002	8.6907266E+003	4.8485518E+003	9.9517422E+003	-2.9157125E+001	4.007794443692546E+001	-6.7096360E-002	-4.2823345E-007	4.1329257E-002	9.8103257E-003	1.000000000000000E+000	13	1.3483870E-001	1.3549256E-005	-6.060057729685772E-007	4.2293142E-004	8.7752160E-005	4.8956888E-005	1.0048492E-004	2.9157125E+001	-4.216337783469128E-009
7.0750946E+002	8.8846182E+003	5.2044458E+003	1.0296732E+004	-3.0360987E+001	4.083944039305788E+001	-6.7083865E-002	-3.7281575E-006	4.3222848E-002	1.1042401E-002	1.000000000000000E+000	13	1.3475920E-001	1.3087570E-005	-6.015094152719232E-007	4.2293142E-004	8.3799205E-005	4.9088034E-005	9.7118187E-005	3.0360987E+001	4.496357696653935E-009
6.3100964E+002	9.0901855E+003	5.5973062E+003	1.0675267E+004	-3.1622795E+001	4.159745080242283E+001	-6.7100294E-002	-4.4337235E-006	4.5061439E-002	1.2388130E-002	1.000000000000000E+000	13	1.3467188E-001	1.2615318E-005	-5.948853432701451E-007	-5.8283542E-005	7.9765538E-005	4.9115843E-005	9.3674476E-005	3.1622795E+001	6.624072001778177E-009
5.6233929E+002	9.3132803E+003	6.0272744E+003	1.1093477E+004	-3.2909729E+001	4.235390065170941E+001	-6.7093186E-002	-6.6910633E-007	4.6957042E-002	1.3861408E-002	1.000000000000000E+000	13	1.3460062E-001	1.2133313E-005	-6.001208498961306E-007	-1.3848604E-004	7.5677599E-005	4.8976264E-005	9.0143069E-005	3.2909729E+001	-5.235506625985528E-009
5.0144415E+002	9.5453564E+003	6.4997646E+003	1.1548193E+004	-3.4252308E+001	4.311119028765825E+001	-6.7092799E-002	9.2409209E-008	4.8831485E-002	1.5469173E-002	1.000000000000000E+000	13	1.3453797E-001	1.1650131E-005	-5.917497758716763E-007	2.6252642E-004	7.1575443E-005	4.8738206E-005	8.6593631E-005	3.4252308E+001	8.371074024454258E-009
4.4685895E+002	9.8023857E+003	7.0177842E+003	1.2055541E+004	-3.5599865E+001	4.386794509695028E+001	-6.7093410E-002	-9.6028782E-007	5.0751593E-002	1.7197935E-002	1.000000000000000E+000	13	1.3446921E-001	1.1154141E-005	-6.020243038783520E-007	1.8232394E-004	6.7446344E-005	4.8286598E-005	8.2949409E-005	3.5599865E+001	-1.027452800667564E-008
3.9808920E+002	1.0076553E+004	7.5920923E+003	1.2616528E+004	-3.6995884E+001	4.463073814653035E+001	-6.7090556E-002	-7.1577279E-007	5.2659683E-002	1.9068716E-002	1.000000000000000E+000	13	1.3441372E-001	1.0653780E-005	-6.067759673721108E-007	2.1918953E-005	6.3304164E-005	4.7695979E-005	7.9261110E-005	3.6995884E+001	-4.751663493758835E-009
3.5465955E+002	1.0369474E+004	8.2193701E+003	1.3231933E+004	-3.8402126E+001	4.539093927596696E+001	-6.7096338E-002	-3.9475603E-007	5.4597147E-002	2.1066891E-002	1.000000000000000E+000	13	1.3436091E-001	1.0154292E-005	-6.086484164032350E-007	-5.8283542E-005	5.9225698E-005	4.6945290E-005	7.5574753E-005	3.8402126E+001	-1.872449031124165E-009
3.1631586E+002	1.0691307E+004	8.9009238E+003	1.3911523E+004	-3.9778679E+001	4.614793792524142E+001	-6.7097105E-002	-2.5665861E-007	5.6528058E-002	2.3141146E-002	1.000000000000000E+000	13	1.3431367E-001	9.6548501E-006	-6.077538142536317E-007	1.0212145E-004	5.5243530E-005	4.5992358E-005	7.1882852E-005	3.9778679E+001	8.946021496032449E-010
2.8189429E+002	1.1037164E+004	9.6472480E+003	1.4659071E+004	-4.1155716E+001	4.690343124108040E+001	-6.7097306E-002	-3.0806061E-006	5.8523513E-002	2.5346871E-002	1.000000000000000E+000	13	1.3427101E-001	9.1595848E-006	-6.053202079810439E-007	3.4272892E-004	5.1362313E-005	4.4894230E-005	6.8217145E-005	4.1155716E+001	2.433606272587809E-009
2.5104436E+002	1.1410582E+004	1.0479111E+004	1.5492358E+004	-4.2563366E+001	4.765990757039981E+001	-6.7089625E-002	-1.3690653E-006	6.0498584E-002	2.7679551E-002	1.000000000000000E+000	13	1.3423145E-001	8.6643649E-006	-5.961318657449636E-007	1.8232394E-004	4.7541485E-005	4.3660570E-005	6.4547952E-005	4.2563366E+001	9.188342236080271E-009
2.2392513E+002	1.1812960E+004	1.1359128E+004	1.6388283E+004	-4.3877991E+001	4.842269760664203E+001	-6.7090034E-002	-2.7166707E-006	6.2570892E-002	3.0060444E-002	1.000000000000000E+000	13	1.3419086E-001	8.1882190E-006	-5.885875020308776E-007	-2.9889104E-004	4.3983706E-005	4.2293934E-005	6.1019204E-005	4.3877991E+001	7.544363714086068E-009
1.9955299E+002	1.2248963E+004	1.2345865E+004	1.7391305E+004	-4.5225742E+001	4.918420038945624E+001	-6.7098595E-002	-3.7469783E-006	6.4601161E-002	3.2555103E-002	1.000000000000000E+000	13	1.3416719E-001	7.7146133E-006	-5.897517390543625E-007	-5.8283542E-005	4.0498129E-005	4.0818515E-005	5.7499998E-005	4.5225742E+001	-1.164237023484898E-009
1.7778128E+002	1.2730417E+004	1.3427178E+004	1.8502773E+004	-4.6525829E+001	4.995224501259509E+001	-6.7093670E-002	-1.9887748E-006	6.6672899E-002	3.5111159E-002	1.000000000000000E+000	13	1.3414195E-001	7.2498297E-006	-5.957874618780908E-007	-2.9889104E-004	3.7185102E-005	3.9220315E-005	5.4045951E-005	4.6525829E+001	-6.035722823728331E-009
1.5842838E+002	1.3253525E+004	1.4597056E+004	1.9716236E+004	-4.7761845E+001	5.071873875569145E+001	-6.7099288E-002	7.0452626E-007	6.8821147E-002	3.7722841E-002	1.000000000000000E+000	13	1.3411494E-001	6.8022587E-006	-5.922175368179725E-007	2.1918953E-005	3.4094428E-005	3.7550632E-005	5.0719620E-005	4.7761845E+001	3.569925060118287E-009
1.4131134E+002	1.3808176E+004	1.5868300E+004	2.1034939E+004	-4.8971069E+001	5.147190655145096E+001	-6.7090668E-002	-1.9197569E-006	7.0976198E-002	4.0391594E-002	1.000000000000000E+000	13	1.3409445E-001	6.3748435E-006	-5.982611461128423E-007	2.1918953E-005	3.1207124E-005	3.5863104E-005	4.7539950E-005	4.8971069E+001	-6.043609294869780E-009
1.2584569E+002	1.4437776E+004	1.7276875E+004	2.2515324E+004	-5.0115490E+001	5.222738872063928E+001	-6.7098297E-002	-1.4345019E-006	7.3200926E-002	4.3101318E-002	1.000000000000000E+000	13	1.3408080E-001	5.9550907E-006	-5.934203296697989E-007	-3.7909354E-004	2.8480257E-005	3.4080724E-005	4.4414195E-005	5.0115490E+001	4.840816443043420E-009
1.1218996E+002	1.5127115E+004	1.8803543E+004	2.4133023E+004	-5.1183941E+001	5.297283424941998E+001	-6.7096412E-002	1.9027279E-006	7.5444311E-002	4.5801781E-002	1.000000000000000E+000	13	1.3405839E-001	5.5549767E-006	-5.872217043010626E-007	-2.1868854E-004	2.5973630E-005	3.2286145E-005	4.1436997E-005	5.1183941E+001	6.198625368736237E-009
1.0003201E+002	1.5863860E+004	2.0465305E+004	2.5893836E+004	-5.2218632E+001	5.373271535219101E+001	-6.7096546E-002	-3.2020591E-006	7.7743292E-002	4.8563119E-002	1.000000000000000E+000	13	1.3404566E-001	5.1767402E-006	-5.876217762704054E-007	-1.3848604E-004	2.3660074E-005	3.0522875E-005	3.8619230E-005	5.2218632E+001	-4.000719693427807E-010
8.9115974E+001	1.6694617E+004	2.2288686E+004	2.7847725E+004	-5.3166145E+001	5.475275564062758E+001	-6.7094214E-002	-3.7876194E-007	8.0127232E-002	5.1329803E-002	1.000000000000000E+000	14	1.3457550E-001	4.8325492E-006	-5.858182765700299E-007	6.6353887E-004	2.1527669E-005	2.8741209E-005	3.5909576E-005	5.3166145E+001	1.803499700375562E-009
7.9415527E+001	1.7601480E+004	2.4271518E+004	2.9981973E+004	-5.4050724E+001	5.551725357022951E+001	-6.7091398E-002	-1.0615288E-006	8.2569145E-002	5.4111704E-002	1.000000000000000E+000	14	1.3447262E-001	4.4851158E-006	-5.896612236187796E-007	1.8232394E-004	1.9580726E-005	2.7000793E-005	3.3353375E-005	5.4050724E+001	-3.842947048749720E-009
7.0838745E+001	1.8598891E+004	2.6410100E+004	3.2301891E+004	-5.4845490E+001	5.626839832591941E+001	-6.7091189E-002	-7.6904502E-007	8.5070550E-002	5.6867409E-002	1.000000000000000E+000	14	1.3439545E-001	4.1606063E-006	-5.874997909086990E-007	5.8333640E-004	1.7825068E-005	2.5311283E-005	3.0957941E-005	5.4845490E+001	2.161432710080552E-009
