EC-Lab ASCII FILE
Nb header lines : 59                          

Potentio Electrochemical Impedance Spectroscopy

Run on channel : 1 (SN 20909)
User : 
CE vs. WE compliance from -10 V to 10 V
Electrode connection : standard
Ewe ctrl range : min = -10.00 V, max = 10.00 V
Acquisition started on : 06/20/2020 10:08:24
Saved on :
	File : DE_140_1_30.mpr
	Directory : P:\Chemistry\Data\VMP3\Kyler\DOE\DE_140\
	Host : 10.0.4.64
Device : VMP3 (SN 1432)
Address : USB
EC-Lab for windows v11.33 (software)
Internet server v11.32 (firmware)
Command interpretor v11.33 (firmware)
Electrode material : 
Initial state : 
Electrolyte : 
Comments : 
Electrode surface area : 0.001 cm²
Characteristic mass : 0.001 g
Equivalent Weight : 0.000 g/eq.
Density : 0.000 g/cm3
Record Analogic IN 1
Cycle Definition : Charge/Discharge alternance
Mode                Single sine         
E (V)               0.0000              
vs.                 Eoc                 
tE (h:m:s)          0:00:0.0000         
record              0                   
dI                  1.000               
unit dI             mA                  
dt (s)              0.000               
fi                  1.000               
unit fi             MHz                 
ff                  1.000               
unit ff             Hz                  
Nd                  20                  
Points              per decade          
spacing             Logarithmic         
Va (mV)             128.0               
pw                  0.50                
Na                  3                   
corr                0                   
E range min (V)     -10.000             
E range max (V)     10.000              
I Range             Auto                
Bandwidth           5                   
nc cycles           0                   
goto Ns'            0                   
nr cycles           0                   
inc. cycle          1                   

freq/Hz	Re(Z)/Ohm	-Im(Z)/Ohm	|Z|/Ohm	Phase(Z)/deg	time/s	<Ewe>/V	<I>/mA	Cs/µF	Cp/µF	cycle number	I Range	|Ewe|/V	|I|/A	(Q-Qo)/mA.h	Analog IN 1/V	Re(Y)/Ohm-1	Im(Y)/Ohm-1	|Y|/Ohm-1	Phase(Y)/deg	dq/mA.h	
1.0000186E+006	9.7885300E+001	1.9032474E+002	2.1402112E+002	-6.2782936E+001	1.747492802998750E+000	-1.4206885E-001	-3.9536256E-004	8.3621283E-004	6.6129316E-004	1.000000000000000E+000	11	1.1567166E-003	5.4046845E-006	-1.111978011134245E-007	1.0212145E-004	2.1369983E-003	4.1551050E-003	4.6724360E-003	6.2782936E+001	-1.111978011134245E-007
8.9124669E+005	1.1087362E+002	1.9945807E+002	2.2820271E+002	-6.0931442E+001	2.343472751294030E+000	-1.4153966E-001	-4.5975012E-004	8.9530414E-004	6.8396237E-004	1.000000000000000E+000	11	2.1624756E-003	9.4761172E-006	-1.800970237723555E-007	1.8232394E-004	2.1290535E-003	3.8300990E-003	4.3820688E-003	6.0931442E+001	-6.889922265893094E-008
7.9433269E+005	1.2491974E+002	2.1365135E+002	2.4749109E+002	-5.9685616E+001	2.938474886206677E+000	-1.4107861E-001	-5.1088701E-004	9.3780400E-004	6.9888256E-004	1.000000000000000E+000	11	2.9035944E-003	1.1732117E-005	-2.672192292830005E-007	-5.8283542E-005	2.0394446E-003	3.4880806E-003	4.0405495E-003	5.9685616E+001	-8.712220551064499E-008
7.0794981E+005	1.3960193E+002	2.2897610E+002	2.6817673E+002	-5.8630215E+001	3.533476007782156E+000	-1.4065348E-001	-4.6385563E-004	9.8181004E-004	7.1575708E-004	1.000000000000000E+000	11	2.7715003E-003	1.0334604E-005	-4.374787505201109E-007	-2.1868854E-004	1.9411059E-003	3.1838163E-003	3.7288843E-003	5.8630215E+001	-1.702595212371105E-007
6.3095681E+005	1.5479004E+002	2.4691570E+002	2.9142291E+002	-5.7916637E+001	4.129489769431530E+000	-1.4024648E-001	-5.1629829E-004	1.0215787E-003	7.3336775E-004	1.000000000000000E+000	11	1.1611001E-003	3.9842444E-006	-6.323749785022099E-007	-5.8283542E-005	1.8226177E-003	2.9073767E-003	3.4314392E-003	5.7916637E+001	-1.948962279820990E-007
5.6234225E+005	1.7322812E+002	2.6153317E+002	3.1369983E+002	-5.6481251E+001	4.725481104425853E+000	-1.3994534E-001	-5.0360698E-004	1.0821628E-003	7.5217284E-004	1.000000000000000E+000	11	2.3760763E-003	7.5743628E-006	-5.685840081237580E-007	2.1918953E-005	1.7603128E-003	2.6576526E-003	3.1877607E-003	5.6481251E+001	6.379097037845187E-008
5.0120619E+005	1.9162447E+002	2.7927847E+002	3.3869809E+002	-5.5544376E+001	5.322480546106817E+000	-1.3964088E-001	-3.8864143E-004	1.1370152E-003	7.7306444E-004	1.000000000000000E+000	11	8.0707753E-003	2.3828818E-005	-4.315004079334257E-007	2.1918953E-005	1.6704191E-003	2.4345121E-003	2.9524819E-003	5.5544376E+001	1.370836001903324E-007
4.4668572E+005	2.1191110E+002	2.9681110E+002	3.6469595E+002	-5.4474701E+001	5.918492734403117E+000	-1.3936979E-001	-3.6456552E-004	1.2004330E-003	7.9512660E-004	1.000000000000000E+000	11	1.5830599E-002	4.3407661E-005	-6.031990663557533E-007	-2.9889104E-004	1.5932790E-003	2.2316098E-003	2.7420102E-003	5.4474701E+001	-1.716986584223276E-007
3.9810347E+005	2.3479294E+002	3.1593765E+002	3.9362967E+002	-5.3381660E+001	6.514478176046396E+000	-1.3923739E-001	-3.9218710E-004	1.2653854E-003	8.1517326E-004	1.000000000000000E+000	11	2.5605364E-002	6.5049375E-005	-8.859592762601096E-007	-6.1970105E-004	1.5153375E-003	2.0390400E-003	2.5404589E-003	5.3381660E+001	-2.827602099043563E-007
3.5480997E+005	2.5754041E+002	3.3397128E+002	4.2173911E+002	-5.2362553E+001	7.109481297637103E+000	-1.3912809E-001	-4.1682122E-004	1.3431212E-003	8.4225909E-004	1.000000000000000E+000	11	3.7132226E-002	8.8045490E-005	-1.133788425652407E-006	6.6353887E-004	1.4479636E-003	1.8776791E-003	2.3711342E-003	5.2362553E+001	-2.478291493922978E-007
3.1622997E+005	2.8274551E+002	3.5200073E+002	4.5149701E+002	-5.1226738E+001	7.704493192577502E+000	-1.3904050E-001	-3.9573121E-004	1.4297941E-003	8.6906232E-004	1.000000000000000E+000	11	5.0413009E-002	1.1165746E-004	-1.114793386809955E-006	-2.1868854E-004	1.3870304E-003	1.7267674E-003	2.2148541E-003	5.1226738E+001	1.899503884245256E-008
2.8183453E+005	3.0939832E+002	3.7045941E+002	4.8266705E+002	-5.0132221E+001	8.300497434247518E+000	-1.3897192E-001	-3.5821777E-004	1.5243521E-003	8.9798949E-004	1.000000000000000E+000	11	6.5234333E-002	1.3515390E-004	-1.111607573598222E-006	3.4272892E-004	1.3280752E-003	1.5901765E-003	2.0718216E-003	5.0132221E+001	3.185813211732531E-009
2.5118764E+005	3.3788998E+002	3.8887708E+002	5.1516504E+002	-4.9013069E+001	8.895482795807766E+000	-1.3897902E-001	-3.9796974E-004	1.6293318E-003	9.2841347E-004	1.000000000000000E+000	11	8.1586361E-002	1.5836937E-004	-1.071536156720766E-006	1.8232394E-004	1.2731587E-003	1.4652765E-003	1.9411255E-003	4.9013069E+001	4.007141687745595E-008
2.2387173E+005	3.7384390E+002	4.0366797E+002	5.5018823E+002	-4.7196693E+001	9.794481531862402E+000	-1.3903131E-001	-9.3251023E-005	1.7611510E-003	9.4803103E-004	1.000000000000000E+000	12	4.0714372E-002	7.4000804E-005	-1.183670468160320E-006	2.1918953E-005	1.2350022E-003	1.3335267E-003	1.8175598E-003	4.7196693E+001	-1.121343114395536E-007
1.9954350E+005	4.0542648E+002	4.2192426E+002	5.8514160E+002	-4.6142353E+001	1.039049753351719E+001	-1.3893121E-001	1.1808201E-005	1.8903755E-003	9.8286779E-004	1.000000000000000E+000	12	5.0453093E-002	8.6223736E-005	-9.965546211606124E-007	3.4272892E-004	1.1841049E-003	1.2322889E-003	1.7089881E-003	4.6142353E+001	1.871158469997074E-007
1.7783180E+005	4.3888571E+002	4.4009882E+002	6.2153650E+002	-4.5079075E+001	1.098547449507168E+001	-1.3894236E-001	-7.5856064E-005	2.0335764E-003	1.0195948E-003	1.000000000000000E+000	12	6.1656326E-002	9.9199846E-005	-1.222095014143431E-006	-2.1868854E-004	1.1361042E-003	1.1392444E-003	1.6089160E-003	4.5079075E+001	-2.255403929828189E-007
1.5848613E+005	4.7421637E+002	4.5751611E+002	6.5894019E+002	-4.3973148E+001	1.158147748341435E+001	-1.3892202E-001	-5.2376643E-005	2.1949392E-003	1.0581404E-003	1.000000000000000E+000	12	7.4447602E-002	1.1298082E-004	-1.147700537920981E-006	-2.1868854E-004	1.0921557E-003	1.0536937E-003	1.5175884E-003	4.3973148E+001	7.439447622245007E-008
1.4125594E+005	5.1090350E+002	4.7435056E+002	6.9715912E+002	-4.2875301E+001	1.217649447164149E+001	-1.3890362E-001	-6.8594454E-005	2.3752756E-003	1.0996361E-003	1.000000000000000E+000	12	8.9089394E-002	1.2778919E-004	-1.026076373820413E-006	1.8232394E-004	1.0511751E-003	9.7596803E-004	1.4343928E-003	4.2875301E+001	1.216241641005682E-007
1.2590930E+005	5.4883154E+002	4.9061990E+002	7.3615485E+002	-4.1794655E+001	1.277349308665725E+001	-1.3886455E-001	-2.7925484E-005	2.5764231E-003	1.1443770E-003	1.000000000000000E+000	12	1.0564517E-001	1.4350945E-004	-1.151446653140334E-006	3.4272892E-004	1.0127465E-003	9.0532983E-004	1.3584099E-003	4.1794655E+001	-1.253702793199207E-007
1.1220494E+005	5.8786938E+002	5.0643918E+002	7.7593237E+002	-4.0744324E+001	1.323249510847381E+001	-1.3895245E-001	-1.9545217E-004	2.8007920E-003	1.1931298E-003	1.000000000000000E+000	12	1.2444205E-001	1.6037744E-004	-1.036385354256911E-006	-5.8283542E-005	9.7641197E-004	8.4116182E-004	1.2887721E-003	4.0744324E+001	1.150612988834231E-007
1.0000371E+005	6.2870801E+002	5.2118121E+002	8.1664166E+002	-3.9657776E+001	1.382849703010288E+001	-1.3882533E-001	-4.3640182E-005	3.0536219E-003	1.2437402E-003	1.000000000000000E+000	12	1.2944415E-001	1.5850790E-004	-8.479480997840357E-007	-2.1868854E-004	9.4272691E-004	7.8149408E-004	1.2245273E-003	3.9657776E+001	1.884372544728749E-007
8.9129305E+004	6.7083551E+002	5.3552771E+002	8.5837653E+002	-3.8600353E+001	1.442448260509991E+001	-1.3877968E-001	-5.1908486E-005	3.3343998E-003	1.2978541E-003	1.000000000000000E+000	12	1.3027114E-001	1.5176456E-004	-9.698243568483222E-007	2.6252642E-004	9.1045897E-004	7.2681904E-004	1.1649899E-003	3.8600353E+001	-1.218762570642865E-007
7.9433273E+004	7.1381305E+002	5.4894482E+002	9.0048291E+002	-3.7561424E+001	1.502049087340129E+001	-1.3874401E-001	-3.4812576E-005	3.6499675E-003	1.3564238E-003	1.000000000000000E+000	12	1.3022168E-001	1.4461316E-004	-9.284441765953994E-007	-2.9889104E-004	8.8030571E-004	6.7698298E-004	1.1105152E-003	3.7561424E+001	4.138018025292280E-008
7.0794977E+004	7.5808502E+002	5.6172308E+002	9.4351776E+002	-3.6537571E+001	1.561549823501264E+001	-1.3871826E-001	-4.9053568E-005	4.0021688E-003	1.4185341E-003	1.000000000000000E+000	12	1.3018467E-001	1.3797797E-004	-7.722978041517005E-007	2.6252642E-004	8.5156492E-004	6.3098950E-004	1.0598635E-003	3.6537571E+001	1.561463724436989E-007
6.3093828E+004	8.0351807E+002	5.7337036E+002	9.8711444E+002	-3.5510704E+001	1.621047546327463E+001	-1.3866022E-001	-3.1285708E-005	4.3994463E-003	1.4843403E-003	1.000000000000000E+000	12	1.2998879E-001	1.3168564E-004	-6.640506231192881E-007	-1.3848604E-004	8.2463294E-004	5.8843743E-004	1.0130538E-003	3.5510704E+001	1.082471810324124E-007
5.6237012E+004	8.4979791E+002	5.8454230E+002	1.0314292E+003	-3.4522537E+001	1.680549815818085E+001	-1.3865401E-001	-2.3746050E-005	4.8415223E-003	1.5550165E-003	1.000000000000000E+000	12	1.2983941E-001	1.2588300E-004	-5.356130533376320E-007	-2.1868854E-004	7.9879776E-004	5.4946123E-004	9.6952851E-004	3.4522537E+001	1.284375697816561E-007
5.0122477E+004	8.9693628E+002	5.9460010E+002	1.0761245E+003	-3.3541332E+001	1.740049663980608E+001	-1.3864215E-001	-5.9207749E-005	5.3402628E-003	1.6303750E-003	1.000000000000000E+000	12	1.2968576E-001	1.2051185E-004	-4.631002181005088E-007	-5.8283542E-005	7.7452697E-004	5.1345211E-004	9.2926051E-004	3.3541332E+001	7.251283523712319E-008
4.4666715E+004	9.4518640E+002	6.0361285E+002	1.1214838E+003	-3.2563026E+001	1.799649861475336E+001	-1.3861407E-001	-5.7024041E-005	5.9030661E-003	1.7100492E-003	1.000000000000000E+000	12	1.2951490E-001	1.1548532E-004	-5.390910796591520E-007	1.0212145E-004	7.5150433E-004	4.7992406E-004	8.9167588E-004	3.2563026E+001	-7.599086155864320E-008
3.9814063E+004	9.9427747E+002	6.1182288E+002	1.1674395E+003	-3.1605824E+001	1.859249845638988E+001	-1.3865831E-001	-7.6882599E-005	6.5336814E-003	1.7944883E-003	1.000000000000000E+000	12	1.2924804E-001	1.1071070E-004	-6.231513905976397E-007	2.6252642E-004	7.2952278E-004	4.4890764E-004	8.5657550E-004	3.1605824E+001	-8.406031093848772E-008
3.5480996E+004	1.0436691E+003	6.1913916E+002	1.2134984E+003	-3.0677826E+001	1.905248866489274E+001	-1.3861848E-001	-6.5254884E-005	7.2449613E-003	1.8859674E-003	1.000000000000000E+000	12	1.3890174E-001	1.1446389E-004	-7.313547643635603E-007	1.0212145E-004	7.0873584E-004	4.2044563E-004	8.2406373E-004	3.0677826E+001	-1.082033737659206E-007
3.1621143E+004	1.0938485E+003	6.2545911E+002	1.2600411E+003	-2.9760784E+001	1.964848778655869E+001	-1.3860273E-001	-6.7028232E-005	8.0471793E-003	1.9827685E-003	1.000000000000000E+000	12	1.2995011E-001	1.0313164E-004	-8.176727992734716E-007	1.8232394E-004	6.8895007E-004	3.9393947E-004	7.9362490E-004	2.9760784E+001	-8.631803490991128E-008
2.8188096E+004	1.1446064E+003	6.3028851E+002	1.3066704E+003	-2.8839802E+001	2.010848594174604E+001	-1.3860363E-001	-3.4814238E-005	8.9580808E-003	2.0843069E-003	1.000000000000000E+000	12	1.3646238E-001	1.0443520E-004	-9.222033907697349E-007	2.1918953E-005	6.7038467E-004	3.6915374E-004	7.6530391E-004	2.8839802E+001	-1.045305914962633E-007
2.5116910E+004	1.1959861E+003	6.3446246E+002	1.3538557E+003	-2.7945648E+001	2.070547538340907E+001	-1.3860051E-001	-5.5475321E-005	9.9872975E-003	2.1933860E-003	1.000000000000000E+000	12	1.2944160E-001	9.5609605E-005	-8.073708152818047E-007	2.1918953E-005	6.5250130E-004	3.4614751E-004	7.3863118E-004	2.7945648E+001	1.148325754879302E-007
2.2389027E+004	1.2479714E+003	6.3701666E+002	1.4011506E+003	-2.7041662E+001	2.116549233862315E+001	-1.3859156E-001	-3.4497076E-005	1.1159227E-002	2.3065668E-003	1.000000000000000E+000	12	1.3343145E-001	9.5229909E-005	-8.826983209768919E-007	-2.1868854E-004	6.3567481E-004	3.2447494E-004	7.1369915E-004	2.7041662E+001	-7.532750569508718E-008
1.9948783E+004	1.2997557E+003	6.3839355E+002	1.4480715E+003	-2.6158621E+001	2.162548836044152E+001	-1.3860935E-001	-3.6774058E-005	1.2497272E-002	2.4289144E-003	1.000000000000000E+000	12	1.3655232E-001	9.4299430E-005	-8.004456858280820E-007	-2.9889104E-004	6.1984296E-004	3.0444472E-004	6.9057359E-004	2.6158621E+001	8.225263514880989E-008
1.7786895E+004	1.3511163E+003	6.3876428E+002	1.4945016E+003	-2.5303276E+001	2.208548352899379E+001	-1.3859576E-001	-3.7949969E-005	1.4008105E-002	2.5589857E-003	1.000000000000000E+000	12	1.3890950E-001	9.2947041E-005	-7.530117988070642E-007	1.8232394E-004	6.0492283E-004	2.8598803E-004	6.6911941E-004	2.5303276E+001	4.743388702101781E-008
1.5847686E+004	1.4032085E+003	6.3743396E+002	1.5412061E+003	-2.4430822E+001	2.254449712412315E+001	-1.3858664E-001	-4.2056014E-005	1.5755026E-002	2.6950578E-003	1.000000000000000E+000	12	1.4068750E-001	9.1284026E-005	-6.912378516289108E-007	-4.5929602E-004	5.9074600E-004	2.6835754E-004	6.4884248E-004	2.4430822E+001	6.177394717815340E-008
1.4121879E+004	1.4545137E+003	6.3516754E+002	1.5871509E+003	-2.3590281E+001	2.314047907243366E+001	-1.3859726E-001	-4.5079742E-005	1.7743504E-002	2.8417085E-003	1.000000000000000E+000	12	1.2942615E-001	8.1546219E-005	-7.415895565607368E-007	2.1918953E-005	5.7740608E-004	2.5214590E-004	6.3005980E-004	2.3590281E+001	-5.035170493182604E-008
1.2590932E+004	1.5054407E+003	6.3167566E+002	1.6325948E+003	-2.2762686E+001	2.359949821422924E+001	-1.3858555E-001	-2.8375629E-005	2.0010969E-002	2.9957085E-003	1.000000000000000E+000	12	1.3024181E-001	7.9775957E-005	-6.733377861706282E-007	1.8232394E-004	5.6481577E-004	2.3699398E-004	6.1252184E-004	2.2762686E+001	6.825177039010865E-008
1.1217711E+004	1.5563492E+003	6.2706909E+002	1.6779269E+003	-2.1945011E+001	2.405948927605641E+001	-1.3859133E-001	-4.2224226E-005	2.2625621E-002	3.1599866E-003	1.000000000000000E+000	12	1.3082412E-001	7.7967714E-005	-6.185868217326060E-007	-1.3848604E-004	5.5279105E-004	2.2272518E-004	5.9597351E-004	2.1945011E+001	5.475096443802211E-008
1.0002229E+004	1.6053003E+003	6.2090649E+002	1.7211954E+003	-2.1145737E+001	2.451949055123259E+001	-1.3858885E-001	-4.4501223E-005	2.5626961E-002	3.3349486E-003	1.000000000000000E+000	12	1.3120146E-001	7.6226941E-005	-6.522637812368986E-007	2.1918953E-005	5.4187101E-004	2.0958773E-004	5.8099156E-004	2.1145737E+001	-3.367695950429255E-008
8.9149297E+003	1.6541504E+003	6.1465979E+002	1.7646587E+003	-2.0384382E+001	2.500191838754108E+001	-1.3855970E-001	-4.6367688E-005	2.9044734E-002	3.5238350E-003	1.000000000000000E+000	12	1.3143301E-001	7.4480697E-005	-6.962651786489005E-007	1.0212145E-004	5.3119450E-004	1.9738467E-004	5.6668185E-004	2.0384382E+001	-4.400139741200192E-008
7.9439976E+003	1.7017601E+003	6.0639612E+002	1.8065724E+003	-1.9612745E+001	2.552798001252813E+001	-1.3854341E-001	-5.7136775E-005	3.3038825E-002	3.7224314E-003	1.000000000000000E+000	12	1.3157211E-001	7.2829695E-005	-6.641830477583426E-007	-5.8283542E-005	5.2141992E-004	1.8579999E-004	5.5353442E-004	1.9612745E+001	3.208213089055790E-008
7.0822334E+003	1.7476580E+003	5.9821936E+002	1.8472073E+003	-1.8895960E+001	2.610485918659833E+001	-1.3852774E-001	-1.4732504E-005	3.7565522E-002	3.9398447E-003	1.000000000000000E+000	12	1.3163409E-001	7.1261136E-005	-7.253798658083623E-007	-1.3848604E-004	5.1218306E-004	1.7531910E-004	5.4135779E-004	1.8895960E+001	-6.119681805001967E-008
6.3077344E+003	1.7928427E+003	5.8929138E+002	1.8872067E+003	-1.8195232E+001	2.673956209668540E+001	-1.3852499E-001	-3.4329722E-005	4.2817041E-002	4.1748215E-003	1.000000000000000E+000	12	1.3166285E-001	6.9765993E-005	-7.354252318368203E-007	5.0313392E-004	5.0338847E-004	1.6545928E-004	5.2988366E-004	1.8195232E+001	-1.004536602845802E-008
5.6210552E+003	1.8368057E+003	5.7999158E+002	1.9261997E+003	-1.7524084E+001	2.744029020998278E+001	-1.3851634E-001	-6.8802001E-005	4.8818063E-002	4.4261012E-003	1.000000000000000E+000	12	1.3165681E-001	6.8350550E-005	-7.347708259225732E-007	1.8232394E-004	4.9506314E-004	1.5632162E-004	5.1915698E-004	1.7524084E+001	6.544059142470635E-010
5.0116035E+003	1.8784907E+003	5.7030328E+002	1.9631539E+003	-1.6888109E+001	2.820071213948540E+001	-1.3852790E-001	-7.0239112E-005	5.5684913E-002	4.6993801E-003	1.000000000000000E+000	12	1.3163310E-001	6.7051849E-005	-6.997613090598962E-007	1.8232394E-004	4.8741660E-004	1.4797800E-004	5.0938438E-004	1.6888109E+001	3.500951686267700E-008
4.4664292E+003	1.9189879E+003	5.6124158E+002	1.9993766E+003	-1.6302481E+001	2.896070910891285E+001	-1.3852686E-001	-9.1086862E-005	6.3490659E-002	5.0028828E-003	1.000000000000000E+000	12	1.3160723E-001	6.5824133E-005	-6.636233090452303E-007	-1.3848604E-004	4.8004620E-004	1.4039790E-004	5.0015590E-004	1.6302481E+001	3.613800001466590E-008
3.9812742E+003	1.9571566E+003	5.5252942E+002	2.0336545E+003	-1.5765026E+001	2.972071205168322E+001	-1.3853033E-001	-5.8089110E-005	7.2350681E-002	5.3407112E-003	1.000000000000000E+000	12	1.3157122E-001	6.4696935E-005	-6.442265858600473E-007	2.6252642E-004	4.7322884E-004	1.3359833E-004	4.9172557E-004	1.5765026E+001	1.939672318518305E-008
3.5465955E+003	1.9952942E+003	5.4391272E+002	2.0681006E+003	-1.5248211E+001	3.048092584777623E+001	-1.3851981E-001	-9.9317833E-005	8.2504809E-002	5.7068230E-003	1.000000000000000E+000	12	1.3152742E-001	6.3598178E-005	-6.194728524011831E-007	5.0313392E-004	4.6651287E-004	1.2717035E-004	4.8353546E-004	1.5248211E+001	2.475373345886416E-008
3.1610112E+003	2.0313417E+003	5.3626202E+002	2.1009346E+003	-1.4788357E+001	3.124069993721059E+001	-1.3851322E-001	-6.1990206E-005	9.3889512E-002	6.1171073E-003	1.000000000000000E+000	12	1.3149408E-001	6.2588369E-005	-6.031825422974685E-007	-5.8283542E-005	4.6021200E-004	1.2149321E-004	4.7597865E-004	1.4788357E+001	1.629031010371459E-008
2.8172952E+003	2.0657954E+003	5.2920050E+002	2.1325017E+003	-1.4368627E+001	3.200092725330614E+001	-1.3852566E-001	-1.1605961E-004	1.0674991E-001	6.5739932E-003	1.000000000000000E+000	12	1.3145214E-001	6.1642218E-005	-6.336087869963699E-007	-1.3848604E-004	4.5426420E-004	1.1637012E-004	4.6893279E-004	1.4368627E+001	-3.042624469890136E-008
2.5108032E+003	2.0995706E+003	5.2437506E+002	2.1640623E+003	-1.4022949E+001	3.276068139607378E+001	-1.3853930E-001	-8.0878031E-005	1.2088306E-001	7.0975749E-003	1.000000000000000E+000	12	1.3140820E-001	6.0722930E-005	-6.969555499429892E-007	-1.3848604E-004	4.4832294E-004	1.1197021E-004	4.6209391E-004	1.4022949E+001	-6.334676294661935E-008
2.2378516E+003	2.1312927E+003	5.1967633E+002	2.1937349E+003	-1.3703125E+001	3.352094945881981E+001	-1.3852383E-001	-9.3214934E-005	1.3685350E-001	7.6798638E-003	1.000000000000000E+000	12	1.3137692E-001	5.9887330E-005	-7.386659363639612E-007	5.0313392E-004	4.4286856E-004	1.0798531E-004	4.5584360E-004	1.3703125E+001	-4.171038642097193E-008
1.9956389E+003	2.1624565E+003	5.1685352E+002	2.2233660E+003	-1.3442206E+001	3.428068034826720E+001	-1.3850753E-001	-2.7816510E-005	1.5430170E-001	8.3384197E-003	1.000000000000000E+000	12	1.3134262E-001	5.9073773E-005	-7.364908225568393E-007	1.0212145E-004	4.3744704E-004	1.0455518E-004	4.4976850E-004	1.3442206E+001	2.175113807121910E-009
1.7782927E+003	2.1936150E+003	5.1541113E+002	2.2533521E+003	-1.3222363E+001	3.504093414434465E+001	-1.3851720E-001	-7.8843681E-005	1.7364532E-001	9.0847416E-003	1.000000000000000E+000	12	1.3131458E-001	5.8275215E-005	-7.184384260645957E-007	-1.3848604E-004	4.3201848E-004	1.0150694E-004	4.4378330E-004	1.3222363E+001	1.805239649224355E-008
1.5855076E+003	2.2232688E+003	5.1616052E+002	2.2823992E+003	-1.3070407E+001	3.580070236713073E+001	-1.3850681E-001	-4.3867491E-005	1.9447646E-001	9.9461125E-003	1.000000000000000E+000	12	1.3128325E-001	5.7519850E-005	-7.669691108943273E-007	-1.3848604E-004	4.2678465E-004	9.9083554E-005	4.3813547E-004	1.3070407E+001	-4.853068482973163E-008
1.4118373E+003	2.2535090E+003	5.1921313E+002	2.3125496E+003	-1.2974642E+001	3.656220885660150E+001	-1.3852246E-001	-4.1851759E-005	2.1711500E-001	1.0944580E-002	1.000000000000000E+000	12	1.3126066E-001	5.6760153E-005	-7.424575823260966E-007	2.1918953E-005	4.2138321E-004	9.7087563E-005	4.3242317E-004	1.2974642E+001	2.451152856823071E-008
1.2587914E+003	2.2828660E+003	5.2291882E+002	2.3419910E+003	-1.2901733E+001	3.732194059935864E+001	-1.3852026E-001	-1.1314793E-004	2.4178651E-001	1.2053973E-002	1.000000000000000E+000	12	1.3123903E-001	5.6037374E-005	-7.873208054714067E-007	-2.9889104E-004	4.1620759E-004	9.5337520E-005	4.2698713E-004	1.2901733E+001	-4.486322314531007E-008
1.1217948E+003	2.3123835E+003	5.2961621E+002	2.3722585E+003	-1.2900228E+001	3.808045948870131E+001	-1.3851331E-001	-3.9537474E-005	2.6788315E-001	1.3351927E-002	1.000000000000000E+000	12	1.3121893E-001	5.5313925E-005	-7.725530096702440E-007	2.1918953E-005	4.1089969E-004	9.4110306E-005	4.2153921E-004	1.2900228E+001	1.476779580116274E-008
1.0003201E+003	2.3419846E+003	5.3725360E+002	2.4028179E+003	-1.2920163E+001	3.883968899147294E+001	-1.3852811E-001	-6.7608096E-005	2.9614323E-001	1.4805353E-002	1.000000000000000E+000	12	1.3120118E-001	5.4603050E-005	-7.556204559550679E-007	-4.5929602E-004	4.0564148E-004	9.3054550E-005	4.1617802E-004	1.2920163E+001	1.693255371517610E-008
8.9142657E+002	2.3711428E+003	5.4853046E+002	2.4337634E+003	-1.3025438E+001	3.959843089411152E+001	-1.3850938E-001	-5.9937211E-005	3.2548711E-001	1.6534025E-002	1.000000000000000E+000	12	1.3118482E-001	5.3902040E-005	-7.380453232823735E-007	-5.8283542E-005	4.0031422E-004	9.2607042E-005	4.1088628E-004	1.3025438E+001	1.757513267269435E-008
7.9423773E+002	2.4020159E+003	5.6089093E+002	2.4666331E+003	-1.3143536E+001	4.035793525024201E+001	-1.3851693E-001	-1.0922854E-004	3.5726562E-001	1.8473065E-002	1.000000000000000E+000	12	1.3116902E-001	5.3177355E-005	-7.646803655249338E-007	1.0212145E-004	3.9479055E-004	9.2186921E-005	4.0541092E-004	1.3143536E+001	-2.663504224256032E-008
7.0750946E+002	2.4316904E+003	5.7538367E+002	2.4988367E+003	-1.3312415E+001	4.112044469974353E+001	-1.3850760E-001	-6.2942090E-005	3.9095819E-001	2.0728586E-002	1.000000000000000E+000	12	1.3115734E-001	5.2487358E-005	-7.600204305207525E-007	-2.1868854E-004	3.8943283E-004	9.2147122E-005	4.0018623E-004	1.3312415E+001	4.659935004181344E-009
6.3100964E+002	2.4620657E+003	5.9277686E+002	2.5324202E+003	-1.3537118E+001	4.187841532242601E+001	-1.3851117E-001	-6.7888039E-005	4.2549348E-001	2.3313304E-002	1.000000000000000E+000	12	1.3114442E-001	5.1786203E-005	-7.597983664058524E-007	-1.3848604E-004	3.8390883E-004	9.2431437E-005	3.9487917E-004	1.3537118E+001	2.220641149001326E-010
5.6233929E+002	2.4939995E+003	6.1322644E+002	2.5682834E+003	-1.3813897E+001	4.263491069173324E+001	-1.3851783E-001	-5.9022739E-005	4.6153092E-001	2.6312171E-002	1.000000000000000E+000	12	1.3113491E-001	5.1059364E-005	-8.135969442440304E-007	1.8232394E-004	3.7810329E-004	9.2968323E-005	3.8936513E-004	1.3813897E+001	-5.379857783817800E-008
5.0144415E+002	2.5268911E+003	6.3430383E+002	2.6052869E+003	-1.4091312E+001	4.339220088763977E+001	-1.3851528E-001	-5.0287930E-005	5.0038034E-001	2.9660864E-002	1.000000000000000E+000	12	1.3112786E-001	5.0331451E-005	-7.848760149231061E-007	2.1918953E-005	3.7228488E-004	9.3451490E-005	3.8383488E-004	1.4091312E+001	2.872092932092431E-008
4.4685895E+002	2.5595667E+003	6.5978436E+002	2.6432361E+003	-1.4454574E+001	4.414891132363118E+001	-1.3851184E-001	-6.4864493E-005	5.3981835E-001	3.3634100E-002	1.000000000000000E+000	12	1.3111496E-001	4.9603954E-005	-8.484974219431428E-007	1.8232394E-004	3.6634860E-004	9.4434370E-005	3.7832413E-004	1.4454574E+001	-6.362140702003673E-008
3.9808920E+002	2.5932153E+003	6.8733429E+002	2.6827588E+003	-1.4844956E+001	4.491171010654944E+001	-1.3851115E-001	-5.7678884E-005	5.8166337E-001	3.8180754E-002	1.000000000000000E+000	12	1.3110793E-001	4.8870559E-005	-8.649882634694627E-007	2.1918953E-005	3.6030920E-004	9.5500305E-005	3.7275063E-004	1.4844956E+001	-1.649084152631990E-008
3.5465955E+002	2.6277751E+003	7.1865240E+002	2.7242729E+003	-1.5295424E+001	4.567196816930664E+001	-1.3851075E-001	-9.2039219E-005	6.2443841E-001	4.3453638E-002	1.000000000000000E+000	12	1.3110267E-001	4.8123911E-005	-9.100144484294409E-007	1.0212145E-004	3.5406821E-004	9.6831711E-005	3.6707040E-004	1.5295424E+001	-4.502618495997823E-008
3.1631586E+002	2.6644333E+003	7.5119507E+002	2.7683025E+003	-1.5744964E+001	4.667892707046121E+001	-1.3851623E-001	-2.3256387E-006	6.6980195E-001	4.9320195E-002	1.000000000000000E+000	13	1.3168932E-001	4.7570426E-005	-9.148931055119141E-007	-5.8283542E-005	3.4767843E-004	9.8022472E-005	3.6123220E-004	1.5744964E+001	-4.878657082473189E-009
2.8189429E+002	2.7011179E+003	7.8817853E+002	2.8137632E+003	-1.6267094E+001	4.743442113298806E+001	-1.3852936E-001	-3.7777772E-006	7.1632355E-001	5.6206089E-002	1.000000000000000E+000	13	1.3163485E-001	4.6782490E-005	-9.418450899807390E-007	-2.9889104E-004	3.4116811E-004	9.9551879E-005	3.5539592E-004	1.6267094E+001	-2.695198446882491E-008
2.5104436E+002	2.7386514E+003	8.2887091E+002	2.8613350E+003	-1.6838787E+001	4.819091167562874E+001	-1.3851728E-001	-1.4521895E-006	7.6486146E-001	6.4182870E-002	1.000000000000000E+000	13	1.3158488E-001	4.5987235E-005	-9.092620519685523E-007	-1.3848604E-004	3.3450246E-004	1.0123938E-004	3.4948721E-004	1.6838787E+001	3.258303801218669E-008
2.2392513E+002	2.7766387E+003	8.7380231E+002	2.9108853E+003	-1.7468678E+001	4.895369765852956E+001	-1.3852072E-001	-3.5817443E-006	8.1339991E-001	7.3296010E-002	1.000000000000000E+000	13	1.3153914E-001	4.5188706E-005	-8.761960084753405E-007	1.0212145E-004	3.2769452E-004	1.0312477E-004	3.4353809E-004	1.7468678E+001	3.306604349321184E-008
1.9955299E+002	2.8156641E+003	9.2304041E+002	2.9631011E+003	-1.8150352E+001	4.971418718792847E+001	-1.3852486E-001	-2.0699647E-006	8.6405456E-001	8.3847411E-002	1.000000000000000E+000	13	1.3149115E-001	4.4376196E-005	-8.393497336151086E-007	2.1918953E-005	3.2069185E-004	1.0513028E-004	3.3748426E-004	1.8150352E+001	3.684627486023189E-008
1.7778128E+002	2.8549541E+003	9.7775952E+002	3.0177437E+003	-1.8905214E+001	5.048223642443190E+001	-1.3852400E-001	3.0235963E-006	9.1559207E-001	9.6117280E-002	1.000000000000000E+000	13	1.3145337E-001	4.3560151E-005	-8.787121958531417E-007	-6.1970105E-004	3.1349776E-004	1.0736616E-004	3.3137342E-004	1.8905214E+001	-3.936246223803308E-008
1.5842838E+002	2.8952522E+003	1.0378507E+003	3.0756494E+003	-1.9721050E+001	5.124873155419482E+001	-1.3852169E-001	-5.5528026E-006	9.6794856E-001	1.1021695E-001	1.000000000000000E+000	13	1.3142280E-001	4.2730098E-005	-8.499048009450942E-007	-2.1868854E-004	3.0606435E-004	1.0971378E-004	3.2513458E-004	1.9721050E+001	2.880739490804746E-008
1.4131134E+002	2.9356038E+003	1.1039681E+003	3.1363220E+003	-2.0609358E+001	5.200189425662393E+001	-1.3852213E-001	-4.5393408E-006	1.0202030E+000	1.2640329E-001	1.000000000000000E+000	13	1.3138491E-001	4.1891395E-005	-8.893601263670361E-007	-2.1868854E-004	2.9843938E-004	1.1223162E-004	3.1884480E-004	2.0609358E+001	-3.945532542194189E-008
1.2584569E+002	2.9770769E+003	1.1778604E+003	3.2016155E+003	-2.1585894E+001	5.275739981248626E+001	-1.3851829E-001	-6.7865772E-006	1.0737125E+000	1.4532396E-001	1.000000000000000E+000	13	1.3135567E-001	4.1027935E-005	-8.540458650853300E-007	4.2293142E-004	2.9043684E-004	1.1490937E-004	3.1234231E-004	2.1585894E+001	3.531426128170607E-008
1.1218996E+002	3.0182502E+003	1.2593094E+003	3.2704272E+003	-2.2647442E+001	5.350284211459802E+001	-1.3852760E-001	-6.8463214E-006	1.1265064E+000	1.6702813E-001	1.000000000000000E+000	13	1.3132322E-001	4.0154759E-005	-8.137730358482966E-007	3.4272892E-004	2.8219301E-004	1.1773986E-004	3.0577046E-004	2.2647442E+001	4.027282923703346E-008
1.0003201E+002	3.0599561E+003	1.3500499E+003	3.3445427E+003	-2.3807030E+001	5.426268063069438E+001	-1.3852161E-001	-4.3471337E-006	1.1785047E+000	1.9202487E-001	1.000000000000000E+000	13	1.3129655E-001	3.9256949E-005	-8.218307610730133E-007	-5.8283542E-005	2.7355313E-004	1.2069140E-004	2.9899454E-004	2.3807030E+001	-8.057725224716716E-009
8.9115974E+001	3.1022151E+003	1.4513008E+003	3.4249106E+003	-2.5071474E+001	5.502973186712188E+001	-1.3852076E-001	-7.9156246E-007	1.2305723E+000	2.2096501E-001	1.000000000000000E+000	13	1.3127670E-001	3.8329963E-005	-8.577823005545926E-007	4.2293142E-004	2.6446817E-004	1.2372542E-004	2.9197842E-004	2.5071474E+001	-3.595153948157934E-008
7.9415527E+001	3.1449963E+003	1.5644286E+003	3.5126113E+003	-2.6447323E+001	5.579423542341101E+001	-1.3853145E-001	-1.2499904E-005	1.2810290E+000	2.5410327E-001	1.000000000000000E+000	13	1.3125953E-001	3.7368078E-005	-8.155676313373179E-007	-3.7909354E-004	2.5489420E-004	1.2679309E-004	2.8468849E-004	2.6447323E+001	4.221466921727470E-008
7.0838745E+001	3.1875452E+003	1.6896934E+003	3.6077012E+003	-2.7927721E+001	5.654540140574682E+001	-1.3851477E-001	-3.4008503E-006	1.3296624E+000	2.9167289E-001	1.000000000000000E+000	13	1.3123554E-001	3.6376499E-005	-8.379461394302376E-007	-1.3848604E-004	2.4490364E-004	1.2982155E-004	2.7718482E-004	2.7927721E+001	-2.237850809291968E-008
6.3082302E+001	3.2311104E+003	1.8313600E+003	3.7140212E+003	-2.9544117E+001	5.732581792284327E+001	-1.3850927E-001	-4.4349026E-006	1.3776500E+000	3.3496356E-001	1.000000000000000E+000	13	1.3121577E-001	3.5329838E-005	-8.459302403747036E-007	3.4272892E-004	2.3424107E-004	1.3276542E-004	2.6924995E-004	2.9544117E+001	-7.984100944465975E-009
5.6241817E+001	3.2756995E+003	1.9883364E+003	3.8319302E+003	-3.1257582E+001	5.806933726478019E+001	-1.3851848E-001	-2.0574260E-005	1.4232163E+000	3.8319117E-001	1.000000000000000E+000	13	1.3120067E-001	3.4238794E-005	-8.660290286769749E-007	-5.8283542E-005	2.2308424E-004	1.3541123E-004	2.6096508E-004	3.1257582E+001	-2.009878830227130E-008
5.0144413E+001	3.3194753E+003	2.1641577E+003	3.9626375E+003	-3.3102654E+001	5.882619138076552E+001	-1.3852273E-001	-3.6118552E-006	1.4665897E+000	4.3743929E-001	1.000000000000000E+000	13	1.3118610E-001	3.3105753E-005	-8.782892685359103E-007	2.6252642E-004	2.1139796E-004	1.3782254E-004	2.5235719E-004	3.3102654E+001	-1.226023985893540E-008
4.4671219E+001	3.3652175E+003	2.3616118E+003	4.1111919E+003	-3.5060062E+001	5.959022053700755E+001	-1.3853449E-001	3.1297745E-006	1.5086337E+000	4.9781197E-001	1.000000000000000E+000	13	1.3116813E-001	3.1905132E-005	-8.883225551949687E-007	4.2293142E-004	1.9910293E-004	1.3972465E-004	2.4323846E-004	3.5060062E+001	-1.003328665905839E-008
3.9808922E+001	3.4107476E+003	2.5830813E+003	4.2784937E+003	-3.7137951E+001	6.035269462662109E+001	-1.3852482E-001	-4.2017787E-006	1.5477530E+000	5.6415182E-001	1.000000000000000E+000	13	1.3115594E-001	3.0654701E-005	-8.468973730878639E-007	1.0212145E-004	1.8632357E-004	1.4110951E-004	2.3372711E-004	3.7137951E+001	4.142518210710479E-008
3.5465305E+001	3.4590256E+003	2.8303032E+003	4.4693931E+003	-3.9291306E+001	6.110313162222155E+001	-1.3852459E-001	-3.0165008E-006	1.5855628E+000	6.3584650E-001	1.000000000000000E+000	13	1.3114186E-001	2.9342207E-005	-9.012932352258455E-007	-1.3848604E-004	1.7316363E-004	1.4168891E-004	2.2374402E-004	3.9291306E+001	-5.439586213798165E-008
3.1629551E+001	3.5071172E+003	3.1052236E+003	4.6842593E+003	-4.1521881E+001	6.182745728330337E+001	-1.3852219E-001	-7.4979262E-006	1.6204447E+000	7.1209532E-001	1.000000000000000E+000	13	1.3112828E-001	2.7993387E-005	-9.305313931227425E-007	2.6252642E-004	1.5983373E-004	1.4151778E-004	2.1348092E-004	4.1521881E+001	-2.923815789689693E-008
2.8170074E+001	3.5576833E+003	3.4169875E+003	4.9328403E+003	-4.3844364E+001	6.263277116157406E+001	-1.3851376E-001	-3.1659501E-006	1.6534412E+000	7.9338026E-001	1.000000000000000E+000	13	1.3111804E-001	2.6580639E-005	-9.042114046335175E-007	-5.8283542E-005	1.4620868E-004	1.4042656E-004	2.0272296E-004	4.3844364E+001	2.631998848922500E-008
2.5104435E+001	3.6094517E+003	3.7633311E+003	5.2144800E+003	-4.6195663E+001	6.338890447746962E+001	-1.3851593E-001	-5.8817900E-006	1.6846019E+000	8.7744546E-001	1.000000000000000E+000	13	1.3110813E-001	2.5143088E-005	-8.912846604170126E-007	1.8232394E-004	1.3274532E-004	1.3840458E-004	1.9177368E-004	4.6195663E+001	1.292674421650484E-008
2.2385387E+001	3.6635850E+003	4.1483857E+003	5.5345244E+003	-4.8551151E+001	6.407541187005700E+001	-1.3851255E-001	-9.6427821E-006	1.7138641E+000	9.6288419E-001	1.000000000000000E+000	13	1.3109520E-001	2.3686805E-005	-9.043719328084181E-007	2.1918953E-005	1.1960398E-004	1.3543115E-004	1.8068400E-004	4.8551151E+001	-1.308727239140548E-008
1.9955299E+001	3.7182966E+003	4.5817993E+003	5.9007300E+003	-5.0939415E+001	6.483722198623582E+001	-1.3852376E-001	-4.4857588E-006	1.7407075E+000	1.0495098E+000	1.000000000000000E+000	13	1.3108379E-001	2.2214843E-005	-8.648580514983324E-007	-3.7909354E-004	1.0679048E-004	1.3159051E-004	1.6947056E-004	5.0939415E+001	3.951388131008570E-008
1.7796129E+001	3.7803972E+003	5.0638101E+003	6.3193018E+003	-5.3256752E+001	6.568154106635484E+001	-1.3851835E-001	-4.8198535E-006	1.7661077E+000	1.1340542E+000	1.000000000000000E+000	13	1.3107856E-001	2.0742569E-005	-8.649856142598461E-007	-5.8283542E-005	9.4667128E-005	1.2680583E-004	1.5824533E-004	5.3256752E+001	-1.275627615136808E-010
1.5857576E+001	3.8444282E+003	5.6064844E+003	6.7979624E+003	-5.5561138E+001	6.640395174067817E+001	-1.3851579E-001	-6.9121902E-006	1.7901635E+000	1.2176330E+000	1.000000000000000E+000	13	1.3107273E-001	1.9281179E-005	-9.469819259136582E-007	5.0313392E-004	8.3190585E-005	1.2132019E-004	1.4710290E-004	5.5561138E+001	-8.199631165381211E-008
1.4118974E+001	3.9134517E+003	6.2194609E+003	7.3482515E+003	-5.7820797E+001	6.720625191208092E+001	-1.3851841E-001	-4.0079908E-006	1.8124427E+000	1.2983798E+000	1.000000000000000E+000	13	1.3106266E-001	1.7835897E-005	-9.213372686605605E-007	2.1918953E-005	7.2475617E-005	1.1518203E-004	1.3608679E-004	5.7820797E+001	2.564465725309770E-008
1.2600808E+001	3.9838730E+003	6.8906348E+003	7.9594028E+003	-5.9965317E+001	6.809685339443968E+001	-1.3851476E-001	-9.4021125E-006	1.8330002E+000	1.3737890E+000	1.000000000000000E+000	13	1.3105491E-001	1.6465419E-005	-8.685228840748398E-007	3.4272892E-004	6.2884639E-005	1.0876728E-004	1.2563757E-004	5.9965317E+001	5.281438458572066E-008
1.1224856E+001	4.0658704E+003	7.6545400E+003	8.6673691E+003	-6.2024052E+001	6.878090121358400E+001	-1.3852395E-001	-4.1200319E-006	1.8523380E+000	1.4447205E+000	1.000000000000000E+000	13	1.3105643E-001	1.5120670E-005	-9.633498107317185E-007	-5.8283542E-005	5.4122636E-005	1.0189303E-004	1.1537526E-004	6.2024052E+001	-9.482692665687869E-008
1.0003201E+001	4.1502437E+003	8.5017949E+003	9.4607100E+003	-6.3980179E+001	6.954170303641149E+001	-1.3851699E-001	-5.2698178E-006	1.8714168E+000	1.5112779E+000	1.000000000000000E+000	13	1.3104501E-001	1.3851499E-005	-9.339415284700105E-007	2.6252642E-004	4.6368830E-005	9.4986775E-005	1.0570031E-004	6.3980179E+001	2.940828226170805E-008
8.9183798E+000	4.2443916E+003	9.4458838E+003	1.0355654E+004	-6.5803818E+001	7.038602398315561E+001	-1.3851944E-001	-4.3544110E-006	1.8892593E+000	1.5718883E+000	1.000000000000000E+000	13	1.3104400E-001	1.2654343E-005	-9.138210852165179E-007	2.6252642E-004	3.9578594E-005	8.8082066E-005	9.6565600E-005	6.5803818E+001	2.012044325349257E-008
7.9395342E+000	4.3470288E+003	1.0513972E+004	1.1377182E+004	-6.7537224E+001	7.132468290776160E+001	-1.3851416E-001	-5.8448200E-006	1.9065943E+000	1.6282555E+000	1.000000000000000E+000	13	1.3103859E-001	1.1517667E-005	-9.323555238836182E-007	-3.7909354E-004	3.3583285E-005	8.1226433E-005	8.7895227E-005	6.7537224E+001	-1.853443866710028E-008
7.0765405E+000	4.4621753E+003	1.1696028E+004	1.2518311E+004	-6.9117546E+001	7.188302050760831E+001	-1.3852830E-001	-9.7644088E-006	1.9229178E+000	1.6785957E+000	1.000000000000000E+000	13	1.3103700E-001	1.0467626E-005	-9.201389439149352E-007	2.1918953E-005	2.8474442E-005	7.4635769E-005	7.9882986E-005	6.9117546E+001	1.221657996868294E-008
6.3105822E+000	4.6038745E+003	1.3003918E+004	1.3794838E+004	-7.0504128E+001	7.250319747035974E+001	-1.3852923E-001	-1.3167939E-006	1.9394406E+000	1.7234223E+000	1.000000000000000E+000	13	1.3103816E-001	9.4990719E-006	-8.780808947937860E-007	2.6252642E-004	2.4193030E-005	6.8334659E-005	7.2490882E-005	7.0504128E+001	4.205804912114928E-008
5.6205034E+000	4.7324253E+003	1.4486553E+004	1.5239949E+004	-7.1908966E+001	7.318965416968058E+001	-1.3851342E-001	-1.6121603E-005	1.9546989E+000	1.7662125E+000	1.000000000000000E+000	13	1.3103709E-001	8.5982629E-006	-8.516995667594271E-007	-5.3949852E-004	2.0375899E-005	6.2373198E-005	6.5617016E-005	7.1908966E+001	2.638132803435883E-008
5.0144415E+000	4.8837036E+003	1.6122896E+004	1.6846314E+004	-7.3148186E+001	7.394717033897177E+001	-1.3849305E-001	3.5191774E-006	1.9685866E+000	1.8031456E+000	1.000000000000000E+000	13	1.3102938E-001	7.7779259E-006	-8.955741208767702E-007	1.0212145E-004	1.7208358E-005	5.6811106E-005	5.9360165E-005	7.3148186E+001	-4.387455411734311E-008
4.4693937E+000	5.0644258E+003	1.7956299E+004	1.8656824E+004	-7.4249336E+001	7.478850403221441E+001	-1.3851601E-001	-9.6496851E-006	1.9831460E+000	1.8370159E+000	1.000000000000000E+000	13	1.3103169E-001	7.0232581E-006	-9.881041488651035E-007	1.0212145E-004	1.4549722E-005	5.1587136E-005	5.3599691E-005	7.4249336E+001	-9.253002798833322E-008
3.9778514E+000	5.2484106E+003	2.0008260E+004	2.0685170E+004	-7.5301765E+001	7.572515786337317E+001	-1.3851976E-001	-1.2540884E-005	1.9996879E+000	1.8709522E+000	1.000000000000000E+000	13	1.3102697E-001	6.3343432E-006	-9.567584561613735E-007	-3.7909354E-004	1.2266186E-005	4.6761790E-005	4.8343813E-005	7.5301765E+001	3.134569270372997E-008
3.5511365E+000	5.4769014E+003	2.2276031E+004	2.2939441E+004	-7.6186943E+001	7.676643095284817E+001	-1.3850482E-001	2.6731763E-009	2.0119398E+000	1.8972515E+000	1.000000000000000E+000	13	1.3103148E-001	5.7120610E-006	-8.564259998816574E-007	2.1918953E-005	1.0408046E-005	4.2332325E-005	4.3593041E-005	7.6186943E+001	1.003324562797161E-007
3.1603966E+000	5.7273071E+003	2.4859635E+004	2.5510850E+004	-7.7026245E+001	7.792823562139529E+001	-1.3850382E-001	-1.3971824E-006	2.0257404E+000	1.9236385E+000	1.000000000000000E+000	13	1.3102634E-001	5.1361026E-006	-9.513780508413119E-007	2.1918953E-005	8.8003617E-006	3.8198374E-005	3.9199007E-005	7.7026245E+001	-9.495205095965451E-008
2.8183618E+000	6.0029800E+003	2.7684902E+004	2.8328248E+004	-7.7765816E+001	7.962766178213496E+001	-1.3850199E-001	-2.8048046E-006	2.0397661E+000	1.9481704E+000	1.000000000000000E+000	14	1.3105148E-001	4.6261766E-006	-9.689216392252006E-007	2.1918953E-005	7.4804457E-006	3.4498767E-005	3.5300454E-005	7.7765816E+001	-1.754358838388875E-008
2.5136740E+000	6.3201094E+003	3.0841316E+004	3.1482227E+004	-7.8419083E+001	8.107171387739072E+001	-1.3850552E-001	1.3982957E-006	2.0529497E+000	1.9702132E+000	1.000000000000000E+000	14	1.3103968E-001	4.1623384E-006	-8.459294418674845E-007	-2.1868854E-004	6.3766661E-006	3.1117306E-005	3.1763953E-005	7.8419083E+001	1.229921973577161E-007
2.2398219E+000	6.6578896E+003	3.4392785E+004	3.5031289E+004	-7.9043976E+001	8.268635888738208E+001	-1.3849822E-001	3.5461176E-007	2.0660427E+000	1.9914149E+000	1.000000000000000E+000	14	1.3104109E-001	3.7406874E-006	-8.943342716003017E-007	-4.5929602E-004	5.4253078E-006	2.8025614E-005	2.8545910E-005	7.9043976E+001	-4.840482973281720E-008
1.9970604E+000	7.0445518E+003	3.8310801E+004	3.8953090E+004	-7.9580894E+001	8.448963779973565E+001	-1.3850012E-001	2.7537294E-007	2.0802124E+000	2.0121777E+000	1.000000000000000E+000	14	1.3103850E-001	3.3640079E-006	-9.427350469225076E-007	2.1918953E-005	4.6426899E-006	2.5248606E-005	2.5671905E-005	7.9580894E+001	-4.840077532220582E-008
1.7796129E+000	7.5008257E+003	4.2683012E+004	4.3337074E+004	-8.0032997E+001	8.650795389557607E+001	-1.3849388E-001	6.0103588E-007	2.0952678E+000	2.0324996E+000	1.000000000000000E+000	14	1.3103621E-001	3.0236515E-006	-8.232019191994608E-007	-3.7909354E-004	3.9938323E-006	2.2726676E-005	2.3074932E-005	8.0032997E+001	1.195331277230468E-007
1.5846854E+000	8.0029600E+003	4.7608395E+004	4.8276355E+004	-8.0457802E+001	8.876700869621709E+001	-1.3849890E-001	-6.0416284E-007	2.1095679E+000	2.0515952E+000	1.000000000000000E+000	14	1.3103372E-001	2.7142421E-006	-9.698144646607526E-007	5.8333640E-004	3.4338541E-006	2.0427469E-005	2.0714075E-005	8.0457802E+001	-1.466125454612918E-007
1.4122382E+000	8.5950176E+003	5.3068184E+004	5.3759711E+004	-8.0800163E+001	9.129621844299254E+001	-1.3849849E-001	-8.9670198E-007	2.1236255E+000	2.0693431E+000	1.000000000000000E+000	14	1.3103262E-001	2.4373758E-006	-8.381004881185718E-007	5.8333640E-004	2.9739442E-006	1.8362018E-005	1.8601291E-005	8.0800163E+001	1.317139765421807E-007
1.2596743E+000	9.2392969E+003	5.9091793E+004	5.9809738E+004	-8.1113472E+001	9.412502079069964E+001	-1.3850047E-001	2.2781900E-007	2.1381328E+000	2.0871093E+000	1.000000000000000E+000	14	1.3103160E-001	2.1908072E-006	-9.294105273308257E-007	2.6252642E-004	2.5828249E-006	1.6518985E-005	1.6719685E-005	8.1113472E+001	-9.131003921225383E-008
1.1224856E+000	9.9858096E+003	6.5850656E+004	6.6603492E+004	-8.1377174E+001	9.729314574113232E+001	-1.3849415E-001	-8.7236387E-008	2.1531744E+000	2.1047738E+000	1.000000000000000E+000	14	1.3102786E-001	1.9672821E-006	-8.903191875194681E-007	6.6353887E-004	2.2510717E-006	1.4844518E-005	1.5014228E-005	8.1377174E+001	3.909133981135761E-008
1.0000638E+000	1.0841769E+004	7.3402180E+004	7.4198547E+004	-8.1597954E+001	1.008423155630881E+002	-1.3849656E-001	4.7036812E-007	2.1681209E+000	2.1218300E+000	1.000000000000000E+000	14	1.3103014E-001	1.7659395E-006	-8.768397582022973E-007	1.8232394E-004	1.9692886E-006	1.3332702E-005	1.3477353E-005	8.1597954E+001	1.347942931717073E-008