EC-Lab ASCII FILE
Nb header lines : 60                          

Potentio Electrochemical Impedance Spectroscopy

Run on channel : 3 (SN 20921)
User : 
CE vs. WE compliance from -10 V to 10 V
Electrode connection : standard
Ewe ctrl range : min = -10.00 V, max = 10.00 V
Acquisition started on : 02/20/2020 14:50:41
Technique started on : 02/20/2020 14:50:42
Saved on :
	File : DE_65_7_60.mpr
	Directory : P:\Chemistry\Data\VMP3\Kyler\DOE\DE_65\60C\
	Host : 10.0.4.64
Device : VMP3 (SN 1432)
Address : USB
EC-Lab for windows v11.33 (software)
Internet server v11.32 (firmware)
Command interpretor v11.33 (firmware)
Electrode material : 
Initial state : 
Electrolyte : 
Comments : 
Electrode surface area : 0.001 cm²
Characteristic mass : 0.001 g
Equivalent Weight : 0.000 g/eq.
Density : 0.000 g/cm3
Record Analogic IN 1
Cycle Definition : Charge/Discharge alternance
Mode                Single sine         
E (V)               0.0000              
vs.                 Eoc                 
tE (h:m:s)          0:00:0.0000         
record              0                   
dI                  1.000               
unit dI             mA                  
dt (s)              0.000               
fi                  1.000               
unit fi             MHz                 
ff                  1.000               
unit ff             Hz                  
Nd                  20                  
Points              per decade          
spacing             Logarithmic         
Va (mV)             128.0               
pw                  0.50                
Na                  3                   
corr                0                   
E range min (V)     -10.000             
E range max (V)     10.000              
I Range             Auto                
Bandwidth           5                   
nc cycles           0                   
goto Ns'            0                   
nr cycles           0                   
inc. cycle          1                   

freq/Hz	Re(Z)/Ohm	-Im(Z)/Ohm	|Z|/Ohm	Phase(Z)/deg	time/s	<Ewe>/V	<I>/mA	Cs/µF	Cp/µF	cycle number	I Range	|Ewe|/V	|I|/A	(Q-Qo)/mA.h	Analog IN 1/V	Re(Y)/Ohm-1	Im(Y)/Ohm-1	|Y|/Ohm-1	Phase(Y)/deg	dq/mA.h	
1.0000186E+006	1.1648463E+002	8.0508888E+001	1.4159926E+002	-3.4650467E+001	1.949490572587820E+000	-3.6875960E-001	2.0124056E-004	1.9768251E-003	6.3904870E-004	1.000000000000000E+000	11	4.5179930E-003	3.1906897E-005	4.075927050265212E-008	2.6785929E-006	5.8096056E-003	4.0153353E-003	7.0621837E-003	3.4650467E+001	4.075927050265212E-008
8.9124669E+005	1.2350030E+002	7.9334007E+001	1.4678627E+002	-3.2715839E+001	2.545486574206734E+000	-3.6835232E-001	1.2575404E-004	2.2509343E-003	6.5752264E-004	1.000000000000000E+000	11	6.5203547E-003	4.4420740E-005	1.257908168053190E-007	8.2845378E-005	5.7318811E-003	3.6820401E-003	6.8126265E-003	3.2715839E+001	8.503154630266685E-008
7.9433269E+005	1.3107285E+002	7.8734116E+001	1.5290242E+002	-3.0992805E+001	3.141479242505739E+000	-3.6801115E-001	9.8914650E-005	2.5448063E-003	6.7476404E-004	1.000000000000000E+000	11	9.2244186E-003	6.0328795E-005	9.729401571005129E-008	-7.7488192E-005	5.6063989E-003	3.3677062E-003	6.5401187E-003	3.0992805E+001	-2.849680109526767E-008
7.0794981E+005	1.3908174E+002	7.8442688E+001	1.5967776E+002	-2.9423182E+001	3.737483004137175E+000	-3.6770263E-001	1.6415086E-004	2.8659275E-003	6.9164176E-004	1.000000000000000E+000	11	1.2697372E-002	7.9518722E-005	1.239147133540731E-007	-3.1798857E-004	5.4548304E-003	3.0765473E-003	6.2626125E-003	2.9423182E+001	2.662069764402179E-008
6.3095681E+005	1.4702173E+002	7.8148064E+001	1.6650078E+002	-2.7992472E+001	4.333483565802453E+000	-3.6743832E-001	1.7291197E-004	3.2277680E-003	7.1105990E-004	1.000000000000000E+000	11	1.6949818E-002	1.0180023E-004	-3.238534796537351E-008	-4.7832212E-004	5.3033340E-003	2.8189390E-003	6.0059777E-003	2.7992472E+001	-1.563000613194466E-007
5.6234225E+005	1.5487726E+002	7.7695045E+001	1.7327286E+002	-2.6640888E+001	4.929490634094691E+000	-3.6722919E-001	1.9173724E-004	3.6427227E-003	7.3240564E-004	1.000000000000000E+000	11	2.1972669E-002	1.2680964E-004	-4.504931147190897E-009	-3.9815533E-004	5.1585371E-003	2.5878090E-003	5.7712444E-003	2.6640888E+001	2.788041681818261E-008
5.0120619E+005	1.6230812E+002	7.6985077E+001	1.7964027E+002	-2.5375658E+001	5.526472262485186E+000	-3.6705562E-001	2.1056274E-004	4.1247457E-003	7.5753528E-004	1.000000000000000E+000	11	2.7770387E-002	1.5458887E-004	-1.048120962077519E-007	-4.7832212E-004	5.0295927E-003	2.3856082E-003	5.5666803E-003	2.5375658E+001	-1.003071650605610E-007
4.4668572E+005	1.6964883E+002	7.5745514E+001	1.8579050E+002	-2.4060003E+001	6.121470797370421E+000	-3.6692697E-001	1.7272802E-004	4.7039329E-003	7.8185817E-004	1.000000000000000E+000	11	3.4338079E-002	1.8482150E-004	-1.565978548678686E-007	-4.7832212E-004	4.9147778E-003	2.1943701E-003	5.3824065E-003	2.4060003E+001	-5.178575866011670E-008
3.9810347E+005	1.7660126E+002	7.4137230E+001	1.9153154E+002	-2.2772671E+001	6.716473812324693E+000	-3.6689532E-001	1.0227410E-004	5.3924709E-003	8.0794154E-004	1.000000000000000E+000	11	4.1726131E-002	2.1785514E-004	3.409805546204249E-007	-4.7832212E-004	4.8140786E-003	2.0209509E-003	5.2210721E-003	2.2772671E+001	4.975784094882936E-007
3.5480997E+005	1.8323230E+002	7.2181656E+001	1.9693721E+002	-2.1501226E+001	7.312474800652126E+000	-3.6687931E-001	1.6080000E-004	6.2143751E-003	8.3482527E-004	1.000000000000000E+000	11	4.9994782E-002	2.5386154E-004	1.893693113820013E-007	-1.5765498E-004	4.7243978E-003	1.8611066E-003	5.0777607E-003	2.1501226E+001	-1.516112432384236E-007
3.1622997E+005	1.8939731E+002	6.9966141E+001	2.0190741E+002	-2.0274969E+001	7.908478002267657E+000	-3.6689013E-001	1.4514464E-004	7.1933167E-003	8.6377474E-004	1.000000000000000E+000	11	5.9231181E-002	2.9335814E-004	1.098016051724294E-007	-2.3782176E-004	4.6458938E-003	1.7162613E-003	4.9527651E-003	2.0274969E+001	-7.956770620957185E-008
2.8183453E+005	1.9515756E+002	6.7583809E+001	2.0652856E+002	-1.9101164E+001	8.504486030578846E+000	-3.6688542E-001	9.2213741E-005	8.3557079E-003	8.9476362E-004	1.000000000000000E+000	11	6.9521457E-002	3.3661909E-004	8.874298309132832E-008	-1.5765498E-004	4.5753587E-003	1.5844641E-003	4.8419451E-003	1.9101164E+001	-2.105862208110112E-008
2.5118764E+005	2.0051726E+002	6.5013992E+001	2.1079372E+002	-1.7964321E+001	9.099480458855396E+000	-3.6689037E-001	6.9848582E-005	9.7457450E-003	9.2707179E-004	1.000000000000000E+000	11	8.0911368E-002	3.8384146E-004	3.980176991770147E-007	-2.3782176E-004	4.5126998E-003	1.4631590E-003	4.7439747E-003	1.7964321E+001	3.092747160856864E-007
2.2387173E+005	2.0539948E+002	6.2435783E+001	2.1467923E+002	-1.6907827E+001	9.695472620456712E+000	-3.6685097E-001	1.1570113E-004	1.1386422E-002	9.6310664E-004	1.000000000000000E+000	11	9.3413569E-002	4.3513090E-004	1.215904653970129E-006	-3.9815533E-004	4.4567599E-003	1.3547323E-003	4.6581123E-003	1.6907827E+001	8.178869547931147E-007
1.9954350E+005	2.0989082E+002	5.9880463E+001	2.1826550E+002	-1.5923097E+001	1.029047227543197E+001	-3.6685690E-001	1.6304431E-004	1.3319790E-002	1.0025303E-003	1.000000000000000E+000	11	1.0701404E-001	4.9029296E-004	1.830495538199709E-006	1.6301216E-004	4.4057849E-003	1.2569411E-003	4.5815762E-003	1.5923097E+001	6.145908842295792E-007
1.7783180E+005	2.1404956E+002	5.7338928E+001	2.2159641E+002	-1.4996135E+001	1.074948923054035E+001	-3.6685002E-001	8.9608227E-005	1.5608500E-002	1.0450447E-003	1.000000000000000E+000	11	1.2170467E-001	5.4921769E-004	2.027354264179141E-006	1.6301216E-004	4.3590204E-003	1.1676808E-003	4.5127086E-003	1.4996135E+001	1.968587259794325E-007
1.5848613E+005	2.1789288E+002	5.4905270E+001	2.2470403E+002	-1.4143119E+001	1.120948055907502E+001	-3.6684310E-001	1.2278587E-004	1.8290048E-002	1.0919964E-003	1.000000000000000E+000	11	1.3748109E-001	6.1183190E-004	2.137138754711487E-006	-2.3782176E-004	4.3154028E-003	1.0874075E-003	4.4502984E-003	1.4143119E+001	1.097844905323454E-007
1.4125594E+005	2.2142308E+002	5.2607922E+001	2.2758685E+002	-1.3365103E+001	1.180549157402129E+001	-3.6674407E-001	1.2427692E-004	2.1417178E-002	1.1443798E-003	1.000000000000000E+000	11	1.3010430E-001	5.7166879E-004	2.192072491433161E-006	-6.3865574E-004	4.2749252E-003	1.0156798E-003	4.3939268E-003	1.3365103E+001	5.493373672167469E-008
1.2590930E+005	2.2473122E+002	5.0445351E+001	2.3032336E+002	-1.2651462E+001	1.240147776235244E+001	-3.6672902E-001	4.4316039E-005	2.5057700E-002	1.2020083E-003	1.000000000000000E+000	11	1.2986997E-001	5.6385930E-004	2.117120677152545E-006	-3.9815533E-004	4.2363070E-003	9.5092261E-004	4.3417220E-003	1.2651462E+001	-7.495181428061612E-008
1.1220494E+005	2.2778850E+002	4.8436378E+001	2.3288126E+002	-1.2004437E+001	1.299749717730447E+001	-3.6667553E-001	9.3522671E-005	2.9284410E-002	1.2668079E-003	1.000000000000000E+000	11	1.2963963E-001	5.5667694E-004	2.412208754372033E-006	-6.3865574E-004	4.2001298E-003	8.9310517E-004	4.2940341E-003	1.2004437E+001	2.950880772194876E-007
1.0000371E+005	2.3059955E+002	4.6639503E+001	2.3526877E+002	-1.1434014E+001	1.359349189893692E+001	-3.6665761E-001	1.1942957E-004	3.4123227E-002	1.3410018E-003	1.000000000000000E+000	11	1.2960795E-001	5.5089314E-004	2.318054074528239E-006	-7.7488192E-005	4.1661020E-003	8.4260764E-004	4.2504580E-003	1.1434014E+001	-9.415467984379380E-008
8.9129305E+004	2.3328351E+002	4.4931232E+001	2.3757106E+002	-1.0901874E+001	1.418848848724156E+001	-3.6664534E-001	1.2148058E-004	3.9742142E-002	1.4215459E-003	1.000000000000000E+000	11	1.2950304E-001	5.4511288E-004	1.797560339046565E-006	-3.9815533E-004	4.1333004E-003	7.9608837E-004	4.2092670E-003	1.0901874E+001	-5.204937354816744E-007
7.9433273E+004	2.3580431E+002	4.3367855E+001	2.3975914E+002	-1.0421076E+001	1.478449587555951E+001	-3.6662686E-001	1.5018370E-004	4.6200827E-002	1.5115944E-003	1.000000000000000E+000	11	1.2946448E-001	5.3997722E-004	1.664917250713592E-006	8.2845378E-005	4.1020541E-003	7.5442763E-004	4.1708522E-003	1.0421076E+001	-1.326430883329723E-007
7.0794977E+004	2.3818532E+002	4.2008282E+001	2.4186140E+002	-1.0002283E+001	1.537947310376330E+001	-3.6659461E-001	1.2968130E-004	5.3515889E-002	1.6144309E-003	1.000000000000000E+000	11	1.2928507E-001	5.3454196E-004	1.226672253720204E-006	8.2845378E-005	4.0717567E-003	7.1812788E-004	4.1345991E-003	1.0002283E+001	-4.382449969933887E-007
6.3093828E+004	2.4042297E+002	4.0799843E+001	2.4386028E+002	-9.6313534E+000	1.583847792560118E+001	-3.6660182E-001	6.7055385E-005	6.1826516E-002	1.7306515E-003	1.000000000000000E+000	11	1.4021136E-001	5.7496596E-004	1.246351920941379E-006	-4.7832212E-004	4.0429076E-003	6.8608252E-004	4.1007088E-003	9.6313534E+000	1.967966722117538E-008
5.6237012E+004	2.4259694E+002	3.9781124E+001	2.4583696E+002	-9.3125010E+000	1.643447691391339E+001	-3.6657384E-001	6.5004315E-005	7.1141146E-002	1.8628617E-003	1.000000000000000E+000	11	1.3031341E-001	5.3008064E-004	2.425973718829886E-006	8.2845378E-005	4.0141256E-003	6.5823761E-004	4.0677367E-003	9.3125010E+000	1.179621797888507E-006
5.0122477E+004	2.4463719E+002	3.8910263E+001	2.4771227E+002	-9.0373602E+000	1.689347325570998E+001	-3.6656734E-001	1.5055675E-004	8.1606254E-002	2.0135238E-003	1.000000000000000E+000	11	1.3950941E-001	5.6319137E-004	2.025867240341742E-006	8.2845378E-005	3.9868280E-003	6.3411664E-004	4.0369420E-003	9.0373602E+000	-4.001064784881440E-007
4.4666715E+004	2.4661029E+002	3.8229935E+001	2.4955594E+002	-8.8119440E+000	1.748848176395404E+001	-3.6655155E-001	8.8675668E-005	9.3203574E-002	2.1872774E-003	1.000000000000000E+000	11	1.3005897E-001	5.2116159E-004	2.827438644304897E-006	-7.7488192E-005	3.9598197E-003	6.1385776E-004	4.0071178E-003	8.8119440E+000	8.015714039631550E-007
3.9814063E+004	2.4850502E+002	3.7700317E+001	2.5134848E+002	-8.6264763E+000	1.794847930580727E+001	-3.6654866E-001	7.2253342E-006	1.0603242E-001	2.3854820E-003	1.000000000000000E+000	11	1.3732879E-001	5.4636807E-004	3.319075514467032E-006	2.6785929E-006	3.9335317E-003	5.9675012E-004	3.9785402E-003	8.6264763E+000	4.916368701621346E-007
3.5480996E+004	2.5036768E+002	3.7395466E+001	2.5314500E+002	-8.4950228E+000	1.854448658743058E+001	-3.6655200E-001	5.7735208E-005	1.1995143E-001	2.6176076E-003	1.000000000000000E+000	11	1.2957969E-001	5.1187933E-004	3.019376302610100E-006	-7.1882247E-004	3.9069653E-003	5.8355293E-004	3.9503053E-003	8.4950228E+000	-2.996992118569323E-007
3.1621143E+004	2.5217128E+002	3.7231377E+001	2.5490494E+002	-8.3986578E+000	1.900447524929768E+001	-3.6654121E-001	1.0153615E-004	1.3518655E-001	2.8839994E-003	1.000000000000000E+000	11	1.3503154E-001	5.2973290E-004	2.564793224375333E-006	-4.7832212E-004	3.8809595E-003	5.7299732E-004	3.9230310E-003	8.3986578E+000	-4.545830782347667E-007
2.8188096E+004	2.5392488E+002	3.7256001E+001	2.5664343E+002	-8.3469143E+000	1.946348209775169E+001	-3.6653909E-001	6.5377579E-005	1.5155077E-001	3.1936720E-003	1.000000000000000E+000	11	1.3984728E-001	5.4490886E-004	2.680740389432888E-006	-7.1882247E-004	3.8551826E-003	5.6563452E-004	3.8964567E-003	8.3469143E+000	1.159471650575545E-007
2.5116910E+004	2.5569008E+002	3.7479607E+001	2.5842239E+002	-8.3391523E+000	2.005849761937861E+001	-3.6651242E-001	8.9234185E-005	1.6906701E-001	3.5562203E-003	1.000000000000000E+000	11	1.2960656E-001	5.0152990E-004	2.779892170931109E-006	-4.7832212E-004	3.8287197E-003	5.6122203E-004	3.8696337E-003	8.3391523E+000	9.915178149822154E-008
2.2389027E+004	2.5735107E+002	3.7916023E+001	2.6012921E+002	-8.3812008E+000	2.051749052116065E+001	-3.6651722E-001	4.8602786E-005	1.8748310E-001	3.9831754E-003	1.000000000000000E+000	11	1.3282649E-001	5.1061739E-004	2.805204485361982E-006	-3.9815533E-004	3.8031877E-003	5.6033093E-004	3.8442435E-003	8.3812008E+000	2.531231443087251E-008
1.9948783E+004	2.5902405E+002	3.8541088E+001	2.6187567E+002	-8.4631462E+000	2.097747971632634E+001	-3.6652258E-001	7.3019582E-005	2.0700450E-001	4.4837086E-003	1.000000000000000E+000	11	1.3554659E-001	5.1759905E-004	3.213205657698887E-006	-1.5765498E-004	3.7770241E-003	5.6199660E-004	3.8186060E-003	8.4631462E+000	4.080011723369050E-007
1.7786895E+004	2.6068927E+002	3.9388210E+001	2.6364810E+002	-8.5919771E+000	2.143747403155430E+001	-3.6652133E-001	8.6439046E-005	2.2717147E-001	5.0703385E-003	1.000000000000000E+000	11	1.3780332E-001	5.2267895E-004	3.536734728074710E-006	-3.1798857E-004	3.7503676E-003	5.6665263E-004	3.7929346E-003	8.5919771E+000	3.235290703758236E-007
1.5847686E+004	2.6232803E+002	4.0451984E+001	2.6542865E+002	-8.7661800E+000	2.189747824004735E+001	-3.6651897E-001	1.2334381E-004	2.4826440E-001	5.7663172E-003	1.000000000000000E+000	11	1.3966569E-001	5.2618922E-004	4.024857024270912E-006	8.2845378E-005	3.7234810E-003	5.7417498E-004	3.7674909E-003	8.7661800E+000	4.881222961962017E-007
1.4121879E+004	2.6400229E+002	4.1759327E+001	2.6728458E+002	-8.9884558E+000	2.249348402835312E+001	-3.6652645E-001	1.5052393E-005	2.6988214E-001	6.5876930E-003	1.000000000000000E+000	11	1.2935582E-001	4.8396291E-004	3.743413972351441E-006	2.6785929E-006	3.6953865E-003	5.8452849E-004	3.7413307E-003	8.9884558E+000	-2.814430519194703E-007
1.2590932E+004	2.6561429E+002	4.3374653E+001	2.6913251E+002	-9.2745047E+000	2.295247501015547E+001	-3.6650616E-001	8.3643281E-005	2.9142463E-001	7.5694788E-003	1.000000000000000E+000	11	1.3046838E-001	4.8477377E-004	3.300405011596417E-006	2.6785929E-006	3.6670691E-003	5.9883023E-004	3.7156418E-003	9.2745047E+000	-4.430089607550246E-007
1.1217711E+004	2.6726071E+002	4.5276340E+001	2.7106870E+002	-9.6151257E+000	2.341147295196424E+001	-3.6651278E-001	6.5563785E-005	3.1336075E-001	8.7423557E-003	1.000000000000000E+000	11	1.3136037E-001	4.8460174E-004	2.849534277668378E-006	8.2845378E-005	3.6372771E-003	6.1618711E-004	3.6891017E-003	9.6151257E+000	-4.508707339280388E-007
1.0002229E+004	2.6891714E+002	4.7484795E+001	2.7307733E+002	-1.0013937E+001	2.387149278711877E+001	-3.6651129E-001	7.2833245E-005	3.3509561E-001	1.0132265E-002	1.000000000000000E+000	11	1.3206004E-001	4.8359940E-004	2.382681706305448E-006	-2.3782176E-004	3.6061781E-003	6.3677103E-004	3.6619664E-003	1.0013937E+001	-4.668525713629305E-007
8.9149297E+003	2.7064050E+002	4.9997063E+001	2.7521988E+002	-1.0466597E+001	2.435392550341203E+001	-3.6649889E-001	9.0167268E-005	3.5707358E-001	1.1783847E-002	1.000000000000000E+000	11	1.3262086E-001	4.8187235E-004	2.716973413212044E-006	-7.7488192E-005	3.5730011E-003	6.6006224E-004	3.6334584E-003	1.0466597E+001	3.342917069065960E-007
7.9439976E+003	2.7235052E+002	5.2941788E+001	2.7744846E+002	-1.1000447E+001	2.488000358172576E+001	-3.6649770E-001	6.7800240E-005	3.7842727E-001	1.3778915E-002	1.000000000000000E+000	11	1.3305195E-001	4.7955554E-004	2.499096204584930E-006	-1.5765498E-004	3.5380470E-003	6.8775535E-004	3.6042731E-003	1.1000447E+001	-2.178772086271135E-007
7.0822334E+003	2.7415005E+002	5.6258228E+001	2.7986288E+002	-1.1596652E+001	2.545686888913042E+001	-3.6648968E-001	7.6933065E-005	3.9945132E-001	1.6141554E-002	1.000000000000000E+000	11	1.3339478E-001	4.7664336E-004	2.739882220626492E-006	-3.1798857E-004	3.5002390E-003	7.1828271E-004	3.5731783E-003	1.1596652E+001	2.407860160415618E-007
6.3077344E+003	2.7599094E+002	6.0067322E+001	2.8245190E+002	-1.2278509E+001	2.609154867925099E+001	-3.6648110E-001	-8.7833221E-005	4.2005724E-001	1.8997479E-002	1.000000000000000E+000	11	1.3366038E-001	4.7321466E-004	2.897689782207534E-006	4.0351250E-004	3.4594401E-003	7.5292075E-004	3.5404258E-003	1.2278509E+001	1.578075615810424E-007
5.6210552E+003	2.7793430E+002	6.4306908E+001	2.8527679E+002	-1.3027538E+001	2.679227207254735E+001	-3.6647058E-001	-6.7144203E-005	4.4029590E-001	2.2373144E-002	1.000000000000000E+000	11	1.3386010E-001	4.6922881E-004	2.502966849733234E-006	8.2845378E-005	3.4151459E-003	7.9017767E-004	3.5053676E-003	1.3027538E+001	-3.947229324742999E-007
5.0116035E+003	2.7997586E+002	6.9058395E+001	2.8836703E+002	-1.3855904E+001	2.755267693537462E+001	-3.6647326E-001	-1.1243675E-004	4.5986137E-001	2.6373556E-002	1.000000000000000E+000	11	1.3400687E-001	4.6470939E-004	2.308124883055118E-006	2.6785929E-006	3.3668934E-003	8.3047245E-004	3.4678027E-003	1.3855904E+001	-1.948419666781166E-007
4.4664292E+003	2.8208496E+002	7.4393410E+001	2.9172986E+002	-1.4774051E+001	2.831169878475339E+001	-3.6646590E-001	-5.8570582E-005	4.7898868E-001	3.1148158E-002	1.000000000000000E+000	11	1.3411187E-001	4.5971249E-004	2.640916884081283E-006	-7.7488192E-005	3.3145011E-003	8.7412325E-004	3.4278287E-003	1.4774051E+001	3.327920010261650E-007
3.9812742E+003	2.8437711E+002	8.0354637E+001	2.9551178E+002	-1.5778363E+001	2.907168034085043E+001	-3.6645266E-001	-8.9325011E-005	4.9749315E-001	3.6784038E-002	1.000000000000000E+000	11	1.3419116E-001	4.5409749E-004	2.222841591509577E-006	-1.5765498E-004	3.2564548E-003	9.2015573E-004	3.3839599E-003	1.5778363E+001	-4.180752925717062E-007
3.5465955E+003	2.8676636E+002	8.7022804E+001	2.9967969E+002	-1.6881071E+001	2.983093664355692E+001	-3.6647892E-001	-1.4058132E-004	5.1567423E-001	4.3483745E-002	1.000000000000000E+000	11	1.3424104E-001	4.4794843E-004	2.291041155232556E-006	-7.7488192E-005	3.1931079E-003	9.6898817E-004	3.3368962E-003	1.6881071E+001	6.819956372297972E-008
3.1610112E+003	2.8935458E+002	9.4416679E+001	3.0436917E+002	-1.8071554E+001	3.059069859966985E+001	-3.6648378E-001	-1.4076832E-004	5.3326786E-001	5.1314667E-002	1.000000000000000E+000	11	1.3427959E-001	4.4117344E-004	2.586536663312775E-006	2.6785929E-006	3.1234105E-003	1.0191719E-003	3.2854839E-003	1.8071554E+001	2.954955080802189E-007
2.8172952E+003	2.9213477E+002	1.0258939E+002	3.0962445E+002	-1.9349819E+001	3.135096268908819E+001	-3.6647731E-001	-1.0349078E-004	5.5066222E-001	6.0453262E-002	1.000000000000000E+000	11	1.3429186E-001	4.3372496E-004	2.841958307359568E-006	8.2845378E-005	3.0472826E-003	1.0701187E-003	3.2297191E-003	1.9349819E+001	2.554216440467929E-007
2.5108032E+003	2.9513406E+002	1.1164606E+002	3.1554550E+002	-2.0721094E+001	3.211067211186310E+001	-3.6647657E-001	-1.3704077E-004	5.6775904E-001	7.1076639E-002	1.000000000000000E+000	11	1.3429822E-001	4.2560650E-004	2.819312829670202E-006	-3.1798857E-004	2.9641173E-003	1.1212939E-003	3.1691152E-003	2.0721094E+001	-2.264547768936593E-008
2.2378516E+003	2.9838263E+002	1.2169154E+002	3.2224374E+002	-2.2187462E+001	3.287093548130360E+001	-3.6648104E-001	-9.4731025E-005	5.8442461E-001	8.3345130E-002	1.000000000000000E+000	11	1.3428618E-001	4.1672238E-004	2.411897466904419E-006	-3.1798857E-004	2.8734561E-003	1.1719023E-003	3.1032411E-003	2.2187462E+001	-4.074153627657832E-007
1.9956389E+003	3.0185226E+002	1.3268716E+002	3.2972818E+002	-2.3729164E+001	3.363069122406159E+001	-3.6647770E-001	-8.7648419E-005	6.0104817E-001	9.7331844E-002	1.000000000000000E+000	11	1.3427410E-001	4.0722662E-004	2.704184877671651E-006	-4.7832212E-004	2.7764018E-003	1.2204411E-003	3.0328012E-003	2.3729164E+001	2.922874107672314E-007
1.7782927E+003	3.0565170E+002	1.4495053E+002	3.3828040E+002	-2.5371914E+001	3.439095312682912E+001	-3.6647666E-001	-1.5735756E-004	6.1744326E-001	1.1336605E-001	1.000000000000000E+000	11	1.3425747E-001	3.9688218E-004	2.490755367529346E-006	-2.3782176E-004	2.6709957E-003	1.2666777E-003	2.9561275E-003	2.5371914E+001	-2.134295101423050E-007
1.5855076E+003	3.0974994E+002	1.5838191E+002	3.4789346E+002	-2.7081652E+001	3.540169730818161E+001	-3.6648273E-001	1.0101541E-005	6.3379127E-001	1.3136052E-001	1.000000000000000E+000	12	1.3823050E-001	3.9733574E-004	2.465032489682522E-006	2.4317895E-004	2.5592854E-003	1.3086185E-003	2.8744433E-003	2.7081652E+001	-2.572287784682363E-008
1.4118373E+003	3.1427579E+002	1.7338191E+002	3.5892975E+002	-2.8884954E+001	3.616322302431217E+001	-3.6647949E-001	2.6488591E-005	6.5017718E-001	1.5171215E-001	1.000000000000000E+000	12	1.3798481E-001	3.8443404E-004	2.322310088887914E-006	-1.5765498E-004	2.4394507E-003	1.3458134E-003	2.7860606E-003	2.8884954E+001	-1.427224007946078E-007
1.2587914E+003	3.1913275E+002	1.8974695E+002	3.7128104E+002	-3.0734472E+001	3.692294922040310E+001	-3.6649367E-001	-2.9610666E-005	6.6633338E-001	1.7403461E-001	1.000000000000000E+000	12	1.3770258E-001	3.7088504E-004	1.998800108889150E-006	-3.1798857E-004	2.3150789E-003	1.3764779E-003	2.6933774E-003	3.0734472E+001	-3.235099799987639E-007
1.1217948E+003	3.2445978E+002	2.0783675E+002	3.8531839E+002	-3.2642097E+001	3.768141722973087E+001	-3.6648089E-001	1.2580403E-005	6.8262839E-001	1.9860472E-001	1.000000000000000E+000	12	1.3739958E-001	3.5658714E-004	2.222245308921427E-006	-7.7488192E-005	2.1853519E-003	1.3998543E-003	2.5952563E-003	3.2642097E+001	2.234452000322765E-007
1.0003201E+003	3.3025717E+002	2.2767628E+002	4.0113126E+002	-3.4582027E+001	3.844067563919089E+001	-3.6647749E-001	7.0244469E-006	6.9881684E-001	2.2512615E-001	1.000000000000000E+000	12	1.3709222E-001	3.4176398E-004	2.076082091940205E-006	-3.1798857E-004	2.0524815E-003	1.4149621E-003	2.4929496E-003	3.4582027E+001	-1.461632169812220E-007
8.9142657E+002	3.3658307E+002	2.4964957E+002	4.1906213E+002	-3.6564976E+001	3.919941287519760E+001	-3.6648288E-001	9.2238306E-006	7.1516085E-001	2.5380987E-001	1.000000000000000E+000	12	1.3677534E-001	3.2638441E-004	1.929145589778070E-006	-1.5765498E-004	1.9166175E-003	1.4215888E-003	2.3862810E-003	3.6564976E+001	-1.469365021621343E-007
7.9423773E+002	3.4348495E+002	2.7383957E+002	4.3928354E+002	-3.8563213E+001	3.995895899127936E+001	-3.6648482E-001	-4.8778398E-005	7.3176801E-001	2.8436488E-001	1.000000000000000E+000	12	1.3646626E-001	3.1065644E-004	2.120005693588205E-006	-7.7488192E-005	1.7799913E-003	1.4190782E-003	2.2764341E-003	3.8563213E+001	1.908601038101349E-007
7.0750946E+002	3.5097452E+002	3.0048520E+002	4.6203296E+002	-4.0568333E+001	4.072144753413158E+001	-3.6648145E-001	1.2951663E-005	7.4862581E-001	3.1663948E-001	1.000000000000000E+000	12	1.3616662E-001	2.9471191E-004	1.860823420311337E-006	-4.7832212E-004	1.6441054E-003	1.4075933E-003	2.1643478E-003	4.0568333E+001	-2.591822732768681E-007
6.3100964E+002	3.5908606E+002	3.2949561E+002	4.8735013E+002	-4.2539341E+001	4.147944709015428E+001	-3.6648032E-001	-2.2994691E-006	7.6548117E-001	3.4990618E-001	1.000000000000000E+000	12	1.3589354E-001	2.7884170E-004	1.647412527245857E-006	1.6301216E-004	1.5118767E-003	1.3872908E-003	2.0519129E-003	4.2539341E+001	-2.134108930654798E-007
5.6233929E+002	3.6788760E+002	3.6169070E+002	5.1590839E+002	-4.4513355E+001	4.223593013943173E+001	-3.6648408E-001	-7.4648920E-006	7.8249997E-001	3.8460407E-001	1.000000000000000E+000	12	1.3563010E-001	2.6289572E-004	1.529534316892548E-006	1.6301216E-004	1.3821970E-003	1.3589147E-003	1.9383286E-003	4.4513355E+001	-1.178782103533092E-007
5.0144415E+002	3.7744345E+002	3.9689426E+002	5.4771216E+002	-4.6438927E+001	4.299318052202580E+001	-3.6648217E-001	5.9379759E-006	7.9969198E-001	4.1992101E-001	1.000000000000000E+000	12	1.3539384E-001	2.4719891E-004	1.453623905074589E-006	-7.7488192E-005	1.2581926E-003	1.3230311E-003	1.8257765E-003	4.6438927E+001	-7.591041181795955E-008
4.4685895E+002	3.8784439E+002	4.3587845E+002	5.8344946E+002	-4.8337330E+001	4.374989845135133E+001	-3.6648345E-001	-1.2577174E-006	8.1711709E-001	4.5604593E-001	1.000000000000000E+000	12	1.3517514E-001	2.3168269E-004	1.481626339381263E-006	-1.5765498E-004	1.1393339E-003	1.2804390E-003	1.7139445E-003	4.8337330E+001	2.800243430667455E-008
3.9808920E+002	3.9903418E+002	4.7894226E+002	6.2338910E+002	-5.0200386E+001	4.451268936759880E+001	-3.6648116E-001	-1.1157846E-005	8.3475024E-001	4.9272487E-001	1.000000000000000E+000	12	1.3498297E-001	2.1653085E-004	1.600268178899872E-006	-5.5848894E-004	1.0268138E-003	1.2324371E-003	1.6041346E-003	5.0200386E+001	1.186418395186087E-007
3.5465955E+002	4.1125214E+002	5.2647803E+002	6.6806244E+002	-5.2005241E+001	4.527195823029615E+001	-3.6647692E-001	-2.5756777E-005	8.5237020E-001	5.2936429E-001	1.000000000000000E+000	12	1.3480537E-001	2.0178557E-004	1.547332431971477E-006	-7.7488192E-005	9.2145486E-004	1.1796309E-003	1.4968661E-003	5.2005241E+001	-5.293574692839472E-008
3.1631586E+002	4.2423236E+002	5.7827997E+002	7.1720349E+002	-5.3735828E+001	4.602893351958483E+001	-3.6647990E-001	4.4091917E-006	8.7008369E-001	5.6565613E-001	1.000000000000000E+000	12	1.3465765E-001	1.8775376E-004	1.579340675650504E-006	-7.7488192E-005	8.2474377E-004	1.1242253E-003	1.3943044E-003	5.3735828E+001	3.200824367902694E-008
2.8189429E+002	4.3842059E+002	6.3583618E+002	7.7233429E+002	-5.5413033E+001	4.678438659544918E+001	-3.6647910E-001	-1.0915949E-005	8.8795024E-001	6.0182256E-001	1.000000000000000E+000	12	1.3452613E-001	1.7418123E-004	1.625066573502813E-006	-7.7488192E-005	7.3498808E-004	1.0659446E-003	1.2947761E-003	5.5413033E+001	4.572589785230876E-008
2.5104436E+002	4.5375461E+002	6.9989209E+002	8.3411163E+002	-5.7043819E+001	4.754092287141248E+001	-3.6647505E-001	-5.2488085E-006	9.0581304E-001	6.3775283E-001	1.000000000000000E+000	12	1.3441418E-001	1.6114651E-004	1.807667794537135E-006	-3.9815533E-004	6.5218779E-004	1.0059647E-003	1.1988803E-003	5.7043819E+001	1.826012210343227E-007
2.2392513E+002	4.7022604E+002	7.6948761E+002	9.0178918E+002	-5.8571323E+001	4.830370592098916E+001	-3.6647505E-001	-6.7963783E-006	9.2366749E-001	6.7252570E-001	1.000000000000000E+000	12	1.3431296E-001	1.4894053E-004	1.956077334662344E-006	4.8367929E-004	5.7822466E-004	9.4621879E-004	1.1089066E-003	5.8571323E+001	1.484095401252086E-007
1.9955299E+002	4.8804697E+002	8.4709668E+002	9.7763110E+002	-6.0051998E+001	4.906520265046856E+001	-3.6648163E-001	-1.6211881E-005	9.4151855E-001	7.0687860E-001	1.000000000000000E+000	12	1.3422719E-001	1.3729840E-004	1.950538645672269E-006	-3.9815533E-004	5.1063619E-004	8.8630442E-004	1.0228807E-003	6.0051998E+001	-5.538688990075147E-009
1.7778128E+002	5.0732608E+002	9.3301703E+002	1.0620266E+003	-6.1464954E+001	4.983326884693815E+001	-3.6647734E-001	4.2254571E-005	9.5949900E-001	7.4054742E-001	1.000000000000000E+000	12	1.3415681E-001	1.2632151E-004	1.866624620484395E-006	2.6785929E-006	4.4979685E-004	8.2721573E-004	9.4159599E-004	6.1464954E+001	-8.391402518787392E-008
1.5842838E+002	5.2826740E+002	1.0281536E+003	1.1559265E+003	-6.2805809E+001	5.059971584338200E+001	-3.6647424E-001	6.2342133E-006	9.7707784E-001	7.7300930E-001	1.000000000000000E+000	12	1.3409607E-001	1.1600743E-004	1.927562979801829E-006	8.2845378E-005	3.9536055E-004	7.6948031E-004	8.6510688E-004	6.2805809E+001	6.093835931743432E-008
1.4131134E+002	5.5088843E+002	1.1322900E+003	1.2591897E+003	-6.4055878E+001	5.135189275909215E+001	-3.6647964E-001	1.0335812E-005	9.9468476E-001	8.0430079E-001	1.000000000000000E+000	12	1.3404849E-001	1.0645616E-004	1.854163319040910E-006	-1.5765498E-004	3.4744121E-004	7.1412680E-004	7.9416152E-004	6.4055878E+001	-7.339966076091897E-008
1.2584569E+002	5.7547992E+002	1.2495604E+003	1.3757101E+003	-6.5271759E+001	5.210740306161460E+001	-3.6647180E-001	-1.8208226E-005	1.0121026E+000	8.3499753E-001	1.000000000000000E+000	12	1.3400827E-001	9.7410259E-005	1.918844359778127E-006	-1.5765498E-004	3.0407193E-004	6.6024240E-004	7.2689733E-004	6.5271759E+001	6.468104073721622E-008
1.1218996E+002	6.0229614E+002	1.3777931E+003	1.5036869E+003	-6.6387672E+001	5.285283123038244E+001	-3.6647913E-001	-1.5504997E-005	1.0296323E+000	8.6444098E-001	1.000000000000000E+000	12	1.3396789E-001	8.9092944E-005	1.975565796946790E-006	-7.7488192E-005	2.6637607E-004	6.0935330E-004	6.6503207E-004	6.6387672E+001	5.672143716866328E-008
1.0003201E+002	6.3167896E+002	1.5198844E+003	1.6459243E+003	-6.7431747E+001	5.361269289315533E+001	-3.6647406E-001	3.4982568E-005	1.0468166E+000	8.9263099E-001	1.000000000000000E+000	12	1.3394223E-001	8.1378123E-005	1.939436988902647E-006	8.2845378E-005	2.3317216E-004	5.6103617E-004	6.0756138E-004	6.7431747E+001	-3.612880804414297E-008
8.9115974E+001	6.6325842E+002	1.6785046E+003	1.8047963E+003	-6.8438622E+001	5.437972972958232E+001	-3.6647785E-001	-2.8834784E-006	1.0640010E+000	9.2030281E-001	1.000000000000000E+000	12	1.3391660E-001	7.4200398E-005	1.871096148113995E-006	2.6785929E-006	2.0362284E-004	5.1530718E-004	5.5407919E-004	6.8438622E+001	-6.834084078865201E-008
7.9415527E+001	6.9779022E+002	1.8536733E+003	1.9806605E+003	-6.9371834E+001	5.514424155253801E+001	-3.6648038E-001	-3.2376872E-006	1.0811388E+000	9.4695169E-001	1.000000000000000E+000	12	1.3389462E-001	6.7600995E-005	1.949633167206028E-006	-2.3782176E-004	1.7787085E-004	4.7251230E-004	5.0488207E-004	6.9371834E+001	7.853701909203278E-008
7.0838745E+001	7.3589600E+002	2.0463625E+003	2.1746592E+003	-7.0220818E+001	5.589537596152513E+001	-3.6648089E-001	-8.8877750E-006	1.0979099E+000	9.7218621E-001	1.000000000000000E+000	12	1.3387848E-001	6.1562976E-005	1.920688856043853E-006	-4.7832212E-004	1.5560878E-004	4.3271322E-004	4.5984218E-004	7.0220818E+001	-2.894431116217480E-008
6.3082302E+001	7.7858795E+002	2.2626460E+003	2.3928574E+003	-7.1011398E+001	5.667584005197568E+001	-3.6648083E-001	6.4376777E-006	1.1150542E+000	9.9700093E-001	1.000000000000000E+000	12	1.3386607E-001	5.5944023E-005	1.898621611400156E-006	-6.3865574E-004	1.3597970E-004	3.9516910E-004	4.1791040E-004	7.1011398E+001	-2.206724464369670E-008
5.6241817E+001	8.2381055E+002	2.5002126E+003	2.6324375E+003	-7.1763145E+001	5.742034822065034E+001	-3.6647862E-001	1.3261380E-005	1.1318369E+000	1.0209903E+000	1.000000000000000E+000	12	1.3385542E-001	5.0848470E-005	1.896676702352529E-006	8.2845378E-005	1.1888066E-004	3.6079524E-004	3.7987606E-004	7.1763145E+001	-1.944909047627706E-009
5.0144413E+001	8.7540930E+002	2.7641960E+003	2.8995037E+003	-7.2427223E+001	5.842720037509571E+001	-3.6648366E-001	-6.9486341E-006	1.1482296E+000	1.0435640E+000	1.000000000000000E+000	13	1.3420430E-001	4.6285266E-005	1.898342703086301E-006	8.2845378E-005	1.0412712E-004	3.2879223E-004	3.4488662E-004	7.2427223E+001	1.666000733772820E-009
4.4671219E+001	9.3186951E+002	3.0582334E+003	3.1970569E+003	-7.3053581E+001	5.919121825139155E+001	-3.6648205E-001	-3.5587193E-006	1.1649886E+000	1.0660123E+000	1.000000000000000E+000	13	1.3412592E-001	4.1952935E-005	1.910404884610115E-006	-7.7488192E-005	9.1170499E-005	2.9920574E-004	3.1278768E-004	7.3053581E+001	1.206218152381342E-008
3.9808922E+001	9.9445142E+002	3.3827747E+003	3.5259180E+003	-7.3617981E+001	5.995373490100610E+001	-3.6648214E-001	-2.4368173E-006	1.1818618E+000	1.0878484E+000	1.000000000000000E+000	13	1.3406606E-001	3.8023023E-005	1.856751239787627E-006	1.6301216E-004	7.9990627E-005	2.7210009E-004	2.8361409E-004	7.3617981E+001	-5.365364482248762E-008
3.5465305E+001	1.0637024E+003	3.7432166E+003	3.8914180E+003	-7.4136543E+001	6.070413109663059E+001	-3.6647421E-001	-1.8722138E-006	1.1988683E+000	1.1092913E+000	1.000000000000000E+000	13	1.3401848E-001	3.4439498E-005	1.926949938054147E-006	-7.7488192E-005	7.0243230E-005	2.4718902E-004	2.5697573E-004	7.4136543E+001	7.019869826652010E-008
3.1629551E+001	1.1401023E+003	4.1389673E+003	4.2931206E+003	-7.4599480E+001	6.142845355768804E+001	-3.6648390E-001	-1.0309226E-005	1.2157243E+000	1.1299857E+000	1.000000000000000E+000	13	1.3397454E-001	3.1206797E-005	1.954162042083125E-006	-4.7832212E-004	6.1858234E-005	2.2456695E-004	2.3293079E-004	7.4599480E+001	2.721210402897763E-008
2.8170074E+001	1.2261274E+003	4.5831851E+003	4.7443623E+003	-7.5022552E+001	6.223374732930097E+001	-3.6647636E-001	-6.5576019E-006	1.2327209E+000	1.1503866E+000	1.000000000000000E+000	13	1.3394055E-001	2.8231518E-005	1.909636678338655E-006	2.6785929E-006	5.4472828E-005	2.0361591E-004	2.1077649E-004	7.5022552E+001	-4.452536374446949E-008
2.5104435E+001	1.3210890E+003	5.0712041E+003	5.2404565E+003	-7.5398529E+001	6.298989787185565E+001	-3.6647794E-001	-5.1395250E-006	1.2501398E+000	1.1706917E+000	1.000000000000000E+000	13	1.3391452E-001	2.5553980E-005	1.889755168645327E-006	-1.5765498E-004	4.8105387E-005	1.8465999E-004	1.9082306E-004	7.5398529E+001	-1.988150969332798E-008
2.2385387E+001	1.4253201E+003	5.6094033E+003	5.7876543E+003	-7.5743156E+001	6.367543166442192E+001	-3.6648333E-001	-8.7346489E-006	1.2674735E+000	1.1906031E+000	1.000000000000000E+000	13	1.3389404E-001	2.3134422E-005	1.923032895038886E-006	-2.3782176E-004	4.2550753E-005	1.6746015E-004	1.7278157E-004	7.5743156E+001	3.327772639355909E-008
1.9955299E+001	1.5436746E+003	6.2068027E+003	6.3958838E+003	-7.6033508E+001	6.443720748726628E+001	-3.6648220E-001	-6.5019917E-006	1.2849729E+000	1.2101207E+000	1.000000000000000E+000	13	1.3387932E-001	2.0932106E-005	1.887546542091715E-006	3.2334571E-004	3.7735896E-005	1.5172838E-004	1.5635056E-004	7.6033508E+001	-3.548635294717105E-008
1.7796129E+001	1.6734446E+003	6.8638896E+003	7.0649414E+003	-7.6298355E+001	6.528153059401666E+001	-3.6647567E-001	-3.5024341E-006	1.3029397E+000	1.2298375E+000	1.000000000000000E+000	13	1.3386232E-001	1.8947407E-005	1.892775086177203E-006	2.4317895E-004	3.3526965E-005	1.3751598E-004	1.4154399E-004	7.6298355E+001	5.228544085488031E-009
1.5857576E+001	1.8185233E+003	7.5971558E+003	7.8117734E+003	-7.6538460E+001	6.600295108163846E+001	-3.6648387E-001	-4.7968051E-006	1.3210896E+000	1.2494966E+000	1.000000000000000E+000	13	1.3385040E-001	1.7134444E-005	1.922982183770728E-006	8.2845378E-005	2.9800225E-005	1.2449495E-004	1.2801190E-004	7.6538460E+001	3.020709759352441E-008
1.4118974E+001	1.9849069E+003	8.4125967E+003	8.6435898E+003	-7.6724167E+001	6.680526591974194E+001	-3.6647886E-001	-1.9976258E-006	1.3399450E+000	1.2692839E+000	1.000000000000000E+000	13	1.3384223E-001	1.5484566E-005	1.946441114825575E-006	2.4317895E-004	2.6567577E-005	1.1260088E-004	1.1569267E-004	7.6724167E+001	2.345893105484714E-008
1.2600808E+001	2.1644653E+003	9.2977061E+003	9.5463213E+003	-7.6895195E+001	6.769584588205907E+001	-3.6647815E-001	-6.6344437E-006	1.3584571E+000	1.2886218E+000	1.000000000000000E+000	13	1.3383240E-001	1.4019264E-005	1.893932465231956E-006	-7.7488192E-005	2.3750823E-005	1.0202432E-004	1.0475239E-004	7.6895195E+001	-5.250864959361938E-008
1.1224856E+001	2.3674126E+003	1.0292112E+004	1.0560882E+004	-7.7046036E+001	6.837993690121220E+001	-3.6647907E-001	-5.3970725E-006	1.3776370E+000	1.3084089E+000	1.000000000000000E+000	13	1.3383023E-001	1.2672260E-005	1.970279174626891E-006	-1.5765498E-004	2.1226268E-005	9.2279275E-005	9.4689065E-005	7.7046036E+001	7.634670939493519E-008
1.0003201E+001	2.5950330E+003	1.1390163E+004	1.1682038E+004	-7.7165321E+001	6.914069371069490E+001	-3.6648372E-001	-1.7033103E-006	1.3968546E+000	1.3279259E+000	1.000000000000000E+000	13	1.3382453E-001	1.1455581E-005	1.886405462741853E-006	-7.7488192E-005	1.9015404E-005	8.3462757E-005	8.5601503E-005	7.7165321E+001	-8.387371188503782E-008
8.9183798E+000	2.8475051E+003	1.2593675E+004	1.2911581E+004	-7.7259315E+001	6.998500175078516E+001	-3.6648059E-001	-3.2715807E-006	1.4170387E+000	1.3481177E+000	1.000000000000000E+000	13	1.3381809E-001	1.0364191E-005	1.944249883173850E-006	-2.3782176E-004	1.7080702E-005	7.5542892E-005	7.7449848E-005	7.7259315E+001	5.784442043199727E-008
7.9395342E+000	3.1346487E+003	1.3939931E+004	1.4288026E+004	-7.7326797E+001	7.092367920871766E+001	-3.6647418E-001	-4.7159538E-006	1.4380186E+000	1.3688040E+000	1.000000000000000E+000	13	1.3381751E-001	9.3657100E-006	1.879493577478974E-006	2.6785929E-006	1.5354810E-005	6.8283560E-005	6.9988673E-005	7.7326797E+001	-6.475630569487618E-008
7.0765405E+000	3.4516570E+003	1.5422296E+004	1.5803833E+004	-7.7384552E+001	7.148204670188716E+001	-3.6648452E-001	-8.4069825E-006	1.4583108E+000	1.3887476E+000	1.000000000000000E+000	13	1.3380891E-001	8.4668645E-006	1.869833406483167E-006	-7.7488192E-005	1.3819835E-005	6.1748178E-005	6.3275787E-005	7.7384552E+001	-9.660170995807114E-009
6.3105822E+000	3.8014475E+003	1.7120309E+004	1.7537273E+004	-7.7480972E+001	7.210220662466600E+001	-3.6649436E-001	5.1363245E-006	1.4731233E+000	1.4039063E+000	1.000000000000000E+000	13	1.3381651E-001	7.6304059E-006	1.854929145502388E-006	2.6785929E-006	1.2360179E-005	5.5665671E-005	5.7021407E-005	7.7480972E+001	-1.490426098077866E-008
5.6205034E+000	4.2406470E+003	1.8933252E+004	1.9402348E+004	-7.7375320E+001	7.278867743063165E+001	-3.6648175E-001	1.5639982E-005	1.4956146E+000	1.4241692E+000	1.000000000000000E+000	13	1.3380983E-001	6.8965796E-006	1.875068358462720E-006	-2.3782176E-004	1.1264801E-005	5.0294053E-005	5.1540155E-005	7.7375320E+001	2.013921296033204E-008
5.0144415E+000	4.6912632E+003	2.0844111E+004	2.1365508E+004	-7.7316116E+001	7.354618175988435E+001	-3.6649042E-001	1.6674296E-005	1.5226994E+000	1.4492874E+000	1.000000000000000E+000	13	1.3380197E-001	6.2625222E-006	1.942600348253652E-006	-4.7832212E-004	1.0276928E-005	4.5662211E-005	4.6804409E-005	7.7316116E+001	6.753198979093151E-008
4.4693937E+000	5.1149854E+003	2.3116697E+004	2.3675826E+004	-7.7523300E+001	7.438751395986765E+001	-3.6647224E-001	-1.8524033E-005	1.5404433E+000	1.4685441E+000	1.000000000000000E+000	13	1.3381100E-001	5.6517983E-006	1.964175579307986E-006	-3.9815533E-004	9.1250276E-006	4.1239698E-005	4.2237174E-005	7.7523300E+001	2.157523105433417E-008
3.9778514E+000	5.7259111E+003	2.5493480E+004	2.6128598E+004	-7.7341270E+001	7.532415549768484E+001	-3.6647680E-001	-1.6237318E-005	1.5694318E+000	1.4940616E+000	1.000000000000000E+000	13	1.3380228E-001	5.1209131E-006	1.877720363719403E-006	1.6301216E-004	8.3871118E-006	3.7341946E-005	3.8272243E-005	7.7341270E+001	-8.645521558858287E-008
3.5511365E+000	6.2849580E+003	2.8142586E+004	2.8835844E+004	-7.7410965E+001	7.669642678953824E+001	-3.6647239E-001	-2.5437985E-006	1.5925342E+000	1.5168808E+000	1.000000000000000E+000	14	1.3383155E-001	4.6411524E-006	1.887459306530654E-006	-2.3782176E-004	7.5585258E-006	3.3845325E-005	3.4679062E-005	7.7410965E+001	9.738942811250577E-009
3.1603966E+000	7.0475518E+003	3.1155186E+004	3.1942348E+004	-7.7253754E+001	7.785922444475000E+001	-3.6646724E-001	7.1101831E-006	1.6163977E+000	1.5377128E+000	1.000000000000000E+000	14	1.3382618E-001	4.1896164E-006	1.959109217385693E-006	1.6301216E-004	6.9072421E-006	3.0534909E-005	3.1306401E-005	7.7253754E+001	7.164991085503876E-008
2.8183618E+000	7.7605010E+003	3.4471879E+004	3.5334625E+004	-7.7312767E+001	7.915463751967036E+001	-3.6647639E-001	-8.7982389E-006	1.6381679E+000	1.5591481E+000	1.000000000000000E+000	14	1.3381997E-001	3.7872189E-006	1.981707805016375E-006	-3.9815533E-004	6.2156828E-006	2.7609845E-005	2.8300852E-005	7.7312767E+001	2.259858763068216E-008
2.5136740E+000	8.6161973E+003	3.7941176E+004	3.8907219E+004	-7.7205498E+001	8.059873612158117E+001	-3.6647189E-001	-2.1880344E-006	1.6687851E+000	1.5869440E+000	1.000000000000000E+000	14	1.3382003E-001	3.4394652E-006	1.882566849824192E-006	-6.3865574E-004	5.6918725E-006	2.5064002E-005	2.5702171E-005	7.7205498E+001	-9.914095519218314E-008
2.2398219E+000	9.6725537E+003	4.1909156E+004	4.3010879E+004	-7.7003815E+001	8.221334625154850E+001	-3.6646995E-001	5.1011398E-006	1.6954998E+000	1.6097518E+000	1.000000000000000E+000	14	1.3381487E-001	3.1111867E-006	1.990276794601351E-006	8.2845378E-005	5.2285882E-006	2.2654385E-005	2.3249931E-005	7.7003815E+001	1.077099447771592E-007
1.9970604E+000	1.0765471E+004	4.6334258E+004	4.7568465E+004	-7.6919769E+001	8.401671903060196E+001	-3.6647189E-001	-6.8212212E-006	1.7199930E+000	1.6318974E+000	1.000000000000000E+000	14	1.3381401E-001	2.8130823E-006	1.927480207280079E-006	1.6301216E-004	4.7576741E-006	2.0476889E-005	2.1022332E-005	7.6919769E+001	-6.279658732127162E-008
1.7796129E+000	1.1910841E+004	5.1148297E+004	5.2516820E+004	-7.6891220E+001	8.603486392644118E+001	-3.6647007E-001	3.7076111E-006	1.7484910E+000	1.6585513E+000	1.000000000000000E+000	14	1.3381079E-001	2.5479605E-006	1.915794972254073E-006	2.4317895E-004	4.3186269E-006	1.8545319E-005	1.9041518E-005	7.6891220E+001	-1.168523502600576E-008
1.5846854E+000	1.3252753E+004	5.6443648E+004	5.7978625E+004	-7.6786514E+001	8.829401979374234E+001	-3.6646861E-001	-2.1681822E-006	1.7793525E+000	1.6863835E+000	1.000000000000000E+000	14	1.3380919E-001	2.3079056E-006	1.990007304433801E-006	2.6785929E-006	3.9424876E-006	1.6791104E-005	1.7247736E-005	7.6786514E+001	7.421233217972802E-008
1.4122382E+000	1.4804894E+004	6.2206922E+004	6.3944398E+004	-7.6612976E+001	9.082319508717046E+001	-3.6646935E-001	-1.7863529E-006	1.8116465E+000	1.7145330E+000	1.000000000000000E+000	14	1.3380885E-001	2.0925813E-006	1.874295983368951E-006	-2.3782176E-004	3.6207643E-006	1.5213660E-005	1.5638587E-005	7.6612976E+001	-1.157113210648504E-007
1.2596743E+000	1.6543166E+004	6.8569727E+004	7.0537109E+004	-7.6435997E+001	9.365194042157964E+001	-3.6646503E-001	-8.4003204E-007	1.8425932E+000	1.7412412E+000	1.000000000000000E+000	14	1.3380845E-001	1.8969937E-006	2.003312767611469E-006	-1.5765498E-004	3.3249366E-006	1.3781520E-005	1.4176935E-005	7.6435997E+001	1.290167842425185E-007
1.1224856E+000	1.8486324E+004	7.5602133E+004	7.7829469E+004	-7.6259583E+001	9.682010990535491E+001	-3.6646676E-001	-3.4274035E-007	1.8754491E+000	1.7696413E+000	1.000000000000000E+000	14	1.3380626E-001	1.7192236E-006	1.878632328927716E-006	-3.1798857E-004	3.0518445E-006	1.2480899E-005	1.2848604E-005	7.6259583E+001	-1.246804386837538E-007
1.0000638E+000	2.0689043E+004	8.3393719E+004	8.5921758E+004	-7.6066864E+001	1.003692364472372E+002	-3.6646044E-001	5.4688222E-008	1.9083546E+000	1.7977093E+000	1.000000000000000E+000	14	1.3380693E-001	1.5573113E-006	1.981948381789367E-006	-3.1798857E-004	2.8024263E-006	1.1296061E-005	1.1638495E-005	7.6066864E+001	1.033160528616514E-007