EC-Lab ASCII FILE
Nb header lines : 60                          

Potentio Electrochemical Impedance Spectroscopy

Run on channel : 4 (SN 4192)
User : 
CE vs. WE compliance from -10 V to 10 V
Electrode connection : standard
Ewe ctrl range : min = -10.00 V, max = 10.00 V
Acquisition started on : 02/20/2020 14:49:02
Technique started on : 02/20/2020 14:49:03
Saved on :
	File : DE_65_12_60.mpr
	Directory : P:\Chemistry\Data\VMP3\Kyler\DOE\DE_65\60C\
	Host : 10.0.4.64
Device : VMP3 (SN 1432)
Address : USB
EC-Lab for windows v11.33 (software)
Internet server v11.32 (firmware)
Command interpretor v11.33 (firmware)
Electrode material : 
Initial state : 
Electrolyte : 
Comments : 
Electrode surface area : 0.001 cm²
Characteristic mass : 0.001 g
Equivalent Weight : 0.000 g/eq.
Density : 0.000 g/cm3
Record Analogic IN 1
Cycle Definition : Charge/Discharge alternance
Mode                Single sine         
E (V)               0.0000              
vs.                 Eoc                 
tE (h:m:s)          0:00:0.0000         
record              0                   
dI                  1.000               
unit dI             mA                  
dt (s)              0.000               
fi                  1.000               
unit fi             MHz                 
ff                  1.000               
unit ff             Hz                  
Nd                  20                  
Points              per decade          
spacing             Logarithmic         
Va (mV)             128.0               
pw                  0.50                
Na                  3                   
corr                0                   
E range min (V)     -10.000             
E range max (V)     10.000              
I Range             Auto                
Bandwidth           5                   
nc cycles           0                   
goto Ns'            0                   
nr cycles           0                   
inc. cycle          1                   

freq/Hz	Re(Z)/Ohm	-Im(Z)/Ohm	|Z|/Ohm	Phase(Z)/deg	time/s	<Ewe>/V	<I>/mA	Cs/µF	Cp/µF	cycle number	I Range	|Ewe|/V	|I|/A	(Q-Qo)/mA.h	Analog IN 1/V	Re(Y)/Ohm-1	Im(Y)/Ohm-1	|Y|/Ohm-1	Phase(Y)/deg	dq/mA.h	
1.0000186E+006	7.8472198E+001	2.4395624E+001	8.2176834E+001	-1.7269548E+001	1.951491265994264E+000	-1.9805182E-003	-8.6212037E-003	6.5237922E-003	5.7494355E-004	1.000000000000000E+000	11	2.5918833E-003	3.1540316E-005	-2.873129213538858E-006	-6.4495736E-004	1.1620291E-002	3.6125437E-003	1.2168880E-002	1.7269548E+001	-2.873129213538858E-006
8.9124669E+005	8.0062408E+001	2.1432001E+001	8.2881363E+001	-1.4986207E+001	2.546479400916724E+000	-1.7062834E-003	-6.7767929E-003	8.3321957E-003	5.5714877E-004	1.000000000000000E+000	11	3.6620849E-003	4.4184661E-005	-3.973032046043146E-006	-2.4398866E-004	1.1655070E-002	3.1199597E-003	1.2065439E-002	1.4986207E+001	-1.099902832504287E-006
7.9433269E+005	8.1301964E+001	1.9295547E+001	8.3560326E+001	-1.3351099E+001	3.141491989168571E+000	-1.4851245E-003	-5.8216448E-003	1.0383902E-002	5.5370003E-004	1.000000000000000E+000	11	5.1403749E-003	6.1516934E-005	-5.004307793607546E-006	2.3717375E-004	1.1643963E-002	2.7634834E-003	1.1967402E-002	1.3351099E+001	-1.031275747564400E-006
7.0794981E+005	8.2983368E+001	1.7757557E+001	8.4862068E+001	-1.2078520E+001	3.737489350809483E+000	-1.3235104E-003	-4.9135834E-003	1.2660022E-002	5.5433670E-004	1.000000000000000E+000	11	7.1342825E-003	8.4069157E-005	-5.851317892824024E-006	-2.4398866E-004	1.1522954E-002	2.4657892E-003	1.1783828E-002	1.2078520E+001	-8.470100992164788E-007
6.3095681E+005	8.4940460E+001	1.6767155E+001	8.6579552E+001	-1.1166562E+001	4.332492445741082E+000	-1.1862625E-003	-4.2465427E-003	1.5043925E-002	5.6422094E-004	1.000000000000000E+000	11	9.6513294E-003	1.1147354E-004	-6.551309842324473E-006	-2.4398866E-004	1.1331409E-002	2.2368080E-003	1.1550072E-002	1.1166562E+001	-6.999919495004487E-007
5.6234225E+005	8.6863419E+001	1.6019251E+001	8.8328194E+001	-1.0449018E+001	4.927479834033875E+000	-1.0887980E-003	-3.3353185E-003	1.7667586E-002	5.8111612E-004	1.000000000000000E+000	11	1.2708385E-002	1.4387688E-004	-7.109814597374579E-006	-3.2418242E-004	1.1133666E-002	2.0532578E-003	1.1321413E-002	1.0449018E+001	-5.585047550501056E-007
5.0120619E+005	8.7802284E+001	1.5240439E+001	8.9115166E+001	-9.8471060E+000	5.524486742360750E+000	-9.8630018E-004	-3.0289690E-003	2.0835610E-002	6.0939370E-004	1.000000000000000E+000	11	1.6153585E-002	1.8126640E-004	-7.425624933886866E-006	-8.3601190E-005	1.1056117E-002	1.9190853E-003	1.1221435E-002	9.8471060E+000	-3.158103365122870E-007
4.4668572E+005	8.8831787E+001	1.4674544E+001	9.0035706E+001	-9.3802471E+000	6.119473090657266E+000	-9.0196019E-004	-2.6105791E-003	2.4280265E-002	6.4499024E-004	1.000000000000000E+000	11	2.0305770E-002	2.2553018E-004	-7.513723901969166E-006	-1.0459260E-003	1.0958190E-002	1.8102354E-003	1.1106704E-002	9.3802471E+000	-8.809896808229996E-008
3.9810347E+005	9.0052948E+001	1.4190337E+001	9.1164131E+001	-8.9549026E+000	6.714475892222254E+000	-8.4633013E-004	-2.4110621E-003	2.8172895E-002	6.8260415E-004	1.000000000000000E+000	11	2.5088295E-002	2.7519919E-004	-7.729052540482371E-006	3.1736746E-004	1.0835524E-002	1.7074370E-003	1.0969226E-002	8.9549026E+000	-2.153286385132056E-007
3.5480997E+005	9.0790253E+001	1.3722018E+001	9.1821365E+001	-8.5946226E+000	7.309483973804163E+000	-8.2694157E-004	-2.1311417E-003	3.2689355E-002	7.3005375E-004	1.000000000000000E+000	11	3.0547822E-002	3.3268752E-004	-7.916628110979219E-006	-5.6476361E-004	1.0768413E-002	1.6275356E-003	1.0890711E-002	8.5946226E+000	-1.875755704968473E-007
3.1622997E+005	9.1626472E+001	1.3332770E+001	9.2591431E+001	-8.2791281E+000	7.904477682110155E+000	-8.1092713E-004	-2.1925571E-003	3.7748240E-002	7.8270107E-004	1.000000000000000E+000	11	3.6805063E-002	3.9749968E-004	-7.795500492800784E-006	3.9756121E-004	1.0687579E-002	1.5551733E-003	1.0800135E-002	8.2791281E+000	1.211276181784347E-007
2.8183453E+005	9.2463654E+001	1.3007125E+001	9.3374046E+001	-8.0074167E+000	8.499492830334930E+000	-8.0028200E-004	-2.2428073E-003	4.3415483E-002	8.4247085E-004	1.000000000000000E+000	11	4.3999229E-002	4.7121476E-004	-7.928967914886825E-006	-4.8456987E-004	1.0605196E-002	1.4918630E-003	1.0709614E-002	8.0074167E+000	-1.334674220860410E-007
2.5118764E+005	9.3159485E+001	1.2722361E+001	9.4024185E+001	-7.7765145E+000	9.095488511986332E+000	-8.3559123E-004	-2.1828774E-003	4.9802847E-002	9.1182272E-004	1.000000000000000E+000	11	5.2106652E-002	5.5418350E-004	-7.423982588461109E-006	2.3717375E-004	1.0537750E-002	1.4390920E-003	1.0635561E-002	7.7765145E+000	5.049853264257160E-007
2.2387173E+005	9.3750946E+001	1.2512671E+001	9.4582275E+001	-7.6021757E+000	9.691475793631980E+000	-7.9940556E-004	-1.9902429E-003	5.6816027E-002	9.9437765E-004	1.000000000000000E+000	11	6.1155755E-002	6.4658793E-004	-8.296874295625861E-006	-3.2418242E-004	1.0479876E-002	1.3987190E-003	1.0572805E-002	7.6021757E+000	-8.728917071647524E-007
1.9954350E+005	9.4319290E+001	1.2359231E+001	9.5125595E+001	-7.4652815E+000	1.028847163534374E+001	-8.1217522E-004	-2.2887690E-003	6.4534374E-002	1.0893795E-003	1.000000000000000E+000	11	7.1134426E-002	7.4779481E-004	-8.138670370736186E-006	-1.0459260E-003	1.0423313E-002	1.3658301E-003	1.0512418E-002	7.4652815E+000	1.582039248896758E-007
1.7783180E+005	9.4970833E+001	1.2295202E+001	9.5763412E+001	-7.3766494E+000	1.088347230359796E+001	-8.5835299E-004	-2.4566425E-003	7.2790556E-002	1.1999059E-003	1.000000000000000E+000	11	8.2125254E-002	8.5758488E-004	-8.364575104409595E-006	-1.1261198E-003	1.0355975E-002	1.3407149E-003	1.0442401E-002	7.3766494E+000	-2.259047336734098E-007
1.5848613E+005	9.5606461E+001	1.2295278E+001	9.6393822E+001	-7.3281860E+000	1.147949465186684E+001	-8.3148864E-004	-2.3306410E-003	8.1675261E-002	1.3288282E-003	1.000000000000000E+000	11	9.3968861E-002	9.7484322E-004	-7.771473246219103E-006	-1.6379493E-004	1.0289372E-002	1.3232441E-003	1.0374109E-002	7.3281860E+000	5.931018581904927E-007
1.4125594E+005	9.6237244E+001	1.2361028E+001	9.7027840E+001	-7.3191838E+000	1.207448705346906E+001	-8.2378904E-004	-2.2963935E-003	9.1150448E-002	1.4793647E-003	1.000000000000000E+000	11	1.0669773E-001	1.0996610E-003	-7.735817111931587E-006	-2.4398866E-004	1.0222343E-002	1.3129913E-003	1.0306320E-002	7.3191838E+000	3.565613428751585E-008
1.2590930E+005	9.6921883E+001	1.2492281E+001	9.7723633E+001	-7.3443737E+000	1.253447896867874E+001	-8.4107067E-004	-2.3799576E-003	1.0118604E-001	1.6535026E-003	1.000000000000000E+000	11	1.2046656E-001	1.2327270E-003	-9.149297275742962E-006	-4.8456987E-004	1.0148985E-002	1.3081048E-003	1.0232939E-002	7.3443737E+000	-1.413480163811376E-006
1.1220494E+005	9.7583153E+001	1.2700084E+001	9.8406120E+001	-7.4151530E+000	1.299447619050625E+001	-7.9755741E-004	-2.5640151E-003	1.1168673E-001	1.8602465E-003	1.000000000000000E+000	11	1.3541752E-001	1.3761087E-003	-8.472314786683354E-006	-6.4495736E-004	1.0076986E-002	1.3114820E-003	1.0161970E-002	7.4151530E+000	6.769824890596082E-007
1.0000371E+005	9.8366562E+001	1.2923384E+001	9.9211868E+001	-7.4846435E+000	1.359048101879307E+001	-8.1711396E-004	-2.1897403E-003	1.2314811E-001	2.0895510E-003	1.000000000000000E+000	11	1.3031566E-001	1.3135088E-003	-7.364817913556989E-006	-6.4495736E-004	9.9935597E-003	1.3129524E-003	1.0079439E-002	7.4846435E+000	1.107496873126365E-006
8.9129305E+004	9.9160515E+001	1.3199579E+001	1.0003518E+002	-7.5822535E+000	1.418547320706421E+001	-7.8749069E-004	-2.2025818E-003	1.3528185E-001	2.3553432E-003	1.000000000000000E+000	11	1.2979269E-001	1.2974704E-003	-4.814011676308130E-006	-3.2418242E-004	9.9090785E-003	1.3190296E-003	9.9964831E-003	7.5822535E+000	2.550806237248859E-006
7.9433273E+004	1.0001174E+002	1.3522387E+001	1.0092177E+002	-7.7001514E+000	1.478048339535599E+001	-7.8077934E-004	-2.1514026E-003	1.4817138E-001	2.6601206E-003	1.000000000000000E+000	11	1.2977816E-001	1.2859283E-003	-6.630271084716595E-006	-2.4398866E-004	9.8193167E-003	1.3276502E-003	9.9086650E-003	7.7001514E+000	-1.816259408408466E-006
7.0794977E+004	1.0092950E+002	1.3871950E+001	1.0187833E+002	-7.8258138E+000	1.537649014362250E+001	-7.7774056E-004	-2.1525193E-003	1.6206162E-001	3.0046336E-003	1.000000000000000E+000	11	1.2962934E-001	1.2723936E-003	-8.315887679863308E-006	-9.6573232E-004	9.7242128E-003	1.3365151E-003	9.8156296E-003	7.8258138E+000	-1.685616595146713E-006
6.3093828E+004	1.0191190E+002	1.4233187E+001	1.0290101E+002	-7.9505982E+000	1.597147393188789E+001	-7.6793443E-004	-2.0358285E-003	1.7722750E-001	3.3907527E-003	1.000000000000000E+000	11	1.2957916E-001	1.2592603E-003	-9.722611411733347E-006	-3.4074546E-006	9.6246647E-003	1.3441970E-003	9.7180782E-003	7.9505982E+000	-1.406723731870039E-006
5.6237012E+004	1.0297039E+002	1.4607290E+001	1.0400132E+002	-8.0740566E+000	1.656749142686022E+001	-7.7011570E-004	-2.0378781E-003	1.9374399E-001	3.8219928E-003	1.000000000000000E+000	11	1.2960397E-001	1.2461762E-003	-7.255059210505958E-006	7.6786280E-005	9.5199505E-003	1.3504919E-003	9.6152630E-003	8.0740566E+000	2.467552201227389E-006
5.0122477E+004	1.0407337E+002	1.4954738E+001	1.0514233E+002	-8.1770964E+000	1.716249366846750E+001	-7.6254673E-004	-2.0429026E-003	2.1232876E-001	4.2954748E-003	1.000000000000000E+000	11	1.2938043E-001	1.2305266E-003	-8.403652216876961E-006	-3.2418242E-004	9.4142212E-003	1.3527687E-003	9.5109167E-003	8.1770964E+000	-1.148593006371004E-006
4.4666715E+004	1.0522929E+002	1.5278040E+001	1.0633260E+002	-8.2609425E+000	1.762148395695840E+001	-7.3586835E-004	-1.8504495E-003	2.3322146E-001	4.8147188E-003	1.000000000000000E+000	11	1.4073735E-001	1.3235579E-003	-9.456022272119298E-006	-8.0534484E-004	9.3068732E-003	1.3512473E-003	9.4044544E-003	8.2609425E+000	-1.052370055242337E-006
3.9814063E+004	1.0647544E+002	1.5585187E+001	1.0761002E+002	-8.3274498E+000	1.821847113195690E+001	-7.3987711E-004	-1.9565439E-003	2.5649071E-001	5.3800982E-003	1.000000000000000E+000	11	1.3044897E-001	1.2122381E-003	-9.188330735306307E-006	-3.4074546E-006	9.1948360E-003	1.3458808E-003	9.2928149E-003	8.3274498E+000	2.676915368129913E-007
3.5480996E+004	1.0775290E+002	1.5825147E+001	1.0890878E+002	-8.3550243E+000	1.867847184717539E+001	-7.3055527E-004	-1.9913423E-003	2.8345007E-001	5.9847534E-003	1.000000000000000E+000	11	1.3987401E-001	1.2843226E-003	-1.010380785220898E-005	-4.0437613E-004	9.0845441E-003	1.3342031E-003	9.1819959E-003	8.3550243E+000	-9.154771169026698E-007
3.1621143E+004	1.0912089E+002	1.6031057E+001	1.1029217E+002	-8.3575954E+000	1.927349328875425E+001	-7.3793827E-004	-1.9606391E-003	3.1396440E-001	6.6330824E-003	1.000000000000000E+000	11	1.3013527E-001	1.1799140E-003	-1.319165248082977E-005	-6.4495736E-004	8.9705382E-003	1.3178708E-003	9.0668267E-003	8.3575954E+000	-3.087844628620789E-006
2.8188096E+004	1.1042189E+002	1.6153509E+001	1.1159718E+002	-8.3227072E+000	1.973349299057736E+001	-7.2701310E-004	-1.9007110E-003	3.4953246E-001	7.3234355E-003	1.000000000000000E+000	11	1.3731925E-001	1.2304904E-003	-1.257199351665945E-005	-4.8456987E-004	8.8664293E-003	1.2970611E-003	8.9608002E-003	8.3227072E+000	6.196589641703112E-007
2.5116910E+004	1.1182470E+002	1.6228197E+001	1.1299609E+002	-8.2572193E+000	2.032848387220292E+001	-7.3048117E-004	-1.8275650E-003	3.9046639E-001	8.0537349E-003	1.000000000000000E+000	11	1.2975086E-001	1.1482774E-003	-1.374358394015710E-005	-1.2865072E-003	8.7581202E-003	1.2709937E-003	8.8498639E-003	8.2572193E+000	-1.171590423497644E-006
2.2389027E+004	1.1312766E+002	1.6213970E+001	1.1428368E+002	-8.1563444E+000	2.078748400064069E+001	-7.1605132E-004	-1.8893571E-003	4.3842521E-001	8.8248188E-003	1.000000000000000E+000	11	1.3487831E-001	1.1802062E-003	-1.511695098120900E-005	-4.8456987E-004	8.6616445E-003	1.2414261E-003	8.7501556E-003	8.1563444E+000	-1.373367041051905E-006
1.9948783E+004	1.1442921E+002	1.6166540E+001	1.1556557E+002	-8.0415173E+000	2.124649308910011E+001	-7.2188640E-004	-1.8910323E-003	4.9349943E-001	9.6574808E-003	1.000000000000000E+000	11	1.3933460E-001	1.2056757E-003	-1.641820357845993E-005	-1.6379493E-004	8.5680094E-003	1.2104870E-003	8.6530959E-003	8.0415173E+000	-1.301252597250925E-006
1.7786895E+004	1.1575330E+002	1.6082945E+001	1.1686526E+002	-7.9101233E+000	2.184148183741490E+001	-7.2253944E-004	-1.7964863E-003	5.5635810E-001	1.0536945E-002	1.000000000000000E+000	11	1.2949333E-001	1.1080566E-003	-1.543758974783123E-005	-4.0437613E-004	8.4754461E-003	1.1775917E-003	8.5568633E-003	7.9101233E+000	9.806138306287017E-007
1.5847686E+004	1.1699827E+002	1.5954458E+001	1.1808107E+002	-7.7652378E+000	2.230149073924986E+001	-7.0548104E-004	-1.7635445E-003	6.2946594E-001	1.1491476E-002	1.000000000000000E+000	11	1.3230453E-001	1.1204551E-003	-1.577858916970824E-005	-8.0534484E-004	8.3911000E-003	1.1442516E-003	8.4687583E-003	7.7652378E+000	-3.409994218770104E-007
1.4121879E+004	1.1817126E+002	1.5788116E+001	1.1922127E+002	-7.6098623E+000	2.276147196107195E+001	-7.1455992E-004	-1.7008210E-003	7.1383417E-001	1.2518448E-002	1.000000000000000E+000	11	1.3457242E-001	1.1287618E-003	-1.499600516701402E-005	-3.2418242E-004	8.3138915E-003	1.1107665E-003	8.3877649E-003	7.6098623E+000	7.825840026942199E-007
1.2590932E+004	1.1931340E+002	1.5629254E+001	1.2033271E+002	-7.4628706E+000	2.322147320958902E+001	-7.1470899E-004	-1.7198055E-003	8.0876809E-001	1.3643730E-002	1.000000000000000E+000	11	1.3640967E-001	1.1336042E-003	-1.598533777720776E-005	-5.6476361E-004	8.2398970E-003	1.0793713E-003	8.3102919E-003	7.4628706E+000	-9.893326101937413E-007
1.1217711E+004	1.2040412E+002	1.5462022E+001	1.2139286E+002	-7.3177428E+000	2.368047608472989E+001	-7.1211765E-004	-1.8124918E-003	9.1759205E-001	1.4886613E-002	1.000000000000000E+000	11	1.3788322E-001	1.1358429E-003	-1.683390039739768E-005	3.9756121E-004	8.1706205E-003	1.0492525E-003	8.2377167E-003	7.3177428E+000	-8.485626201899244E-007
1.0002229E+004	1.2143919E+002	1.5320642E+001	1.2240179E+002	-7.1903887E+000	2.414047882656450E+001	-7.0542475E-004	-1.7903438E-003	1.0385953E+000	1.6271392E-002	1.000000000000000E+000	11	1.3904591E-001	1.1359793E-003	-1.811268796509062E-005	-1.7676697E-003	8.1055649E-003	1.0225896E-003	8.1698149E-003	7.1903887E+000	-1.278787567692940E-006
8.9149297E+003	1.2243304E+002	1.5207462E+001	1.2337389E+002	-7.0804701E+000	2.462290324951755E+001	-6.6411245E-004	-1.3719546E-003	1.1739388E+000	1.7836615E-002	1.000000000000000E+000	11	1.3997120E-001	1.1345285E-003	-1.809999858713935E-005	-3.2418242E-004	8.0436310E-003	9.9910295E-004	8.1054429E-003	7.0804701E+000	1.268937795126862E-008
7.9439976E+003	1.2337564E+002	1.5131818E+001	1.2430013E+002	-6.9923110E+000	2.514897940785158E+001	-6.3090969E-004	-1.2282726E-003	1.3240058E+000	1.9621355E-002	1.000000000000000E+000	11	1.4068772E-001	1.1318389E-003	-1.792234558718661E-005	-2.4398866E-004	7.9852091E-003	9.7937265E-004	8.0450438E-003	6.9923110E+000	1.776529999527472E-007
7.0822334E+003	1.2432378E+002	1.5112129E+001	1.2523888E+002	-6.9305658E+000	2.589487640326843E+001	-6.2626821E-004	-9.5282291E-004	1.4870455E+000	2.1651959E-002	1.000000000000000E+000	11	1.2933443E-001	1.0327019E-003	-1.994025161677241E-005	-6.4495736E-004	7.9263970E-003	9.6349017E-004	7.9847407E-003	6.9305658E+000	-2.017906029585800E-006
6.3077344E+003	1.2521110E+002	1.5123055E+001	1.2612108E+002	-6.8868518E+000	2.652954014003626E+001	-6.2116008E-004	-9.8148652E-004	1.6684270E+000	2.3988931E-002	1.000000000000000E+000	11	1.2973060E-001	1.0286195E-003	-1.917686154040631E-005	-4.0437613E-004	7.8716809E-003	9.5074519E-004	7.9288883E-003	6.8868518E+000	7.633900763660980E-007
5.6210552E+003	1.2609139E+002	1.5208156E+001	1.2700523E+002	-6.8773475E+000	2.723027625333634E+001	-6.1610795E-004	-9.7794854E-004	1.8617686E+000	2.6695350E-002	1.000000000000000E+000	11	1.3003212E-001	1.0238328E-003	-1.968129411670735E-005	-3.4074546E-006	7.8170383E-003	9.4282994E-004	7.8736916E-003	6.8773475E+000	-5.044325763010433E-007
5.0116035E+003	1.2695480E+002	1.5339259E+001	1.2787813E+002	-6.8893423E+000	2.799070047617715E+001	-6.2173803E-004	-1.1071148E-003	2.0703275E+000	2.9788954E-002	1.000000000000000E+000	11	1.3026021E-001	1.0186278E-003	-1.959856981443105E-005	-1.6379493E-004	7.7634836E-003	9.3801948E-004	7.8199459E-003	6.8893423E+000	8.272430227629826E-008
4.4664292E+003	1.2783821E+002	1.5542739E+001	1.2877960E+002	-6.9320736E+000	2.875069877893839E+001	-5.9916161E-004	-9.3942328E-004	2.2926202E+000	3.3395894E-002	1.000000000000000E+000	11	1.3043608E-001	1.0128629E-003	-1.939761621770352E-005	7.6786280E-005	7.7084410E-003	9.3720242E-004	7.7652051E-003	6.9320736E+000	2.009535967275336E-007
3.9812742E+003	1.2871455E+002	1.5819853E+001	1.2968309E+002	-7.0068817E+000	2.951069676170300E+001	-6.2382588E-004	-1.0529538E-003	2.5269439E+000	3.7603978E-002	1.000000000000000E+000	11	1.3055804E-001	1.0067469E-003	-1.880680318797790E-005	-7.2515110E-004	7.6535153E-003	9.4066665E-004	7.7111055E-003	7.0068817E+000	5.908130297256218E-007
3.5465955E+003	1.2962872E+002	1.6149694E+001	1.3063084E+002	-7.1015601E+000	3.027093938447069E+001	-6.2481395E-004	-1.1402448E-003	2.7787161E+000	4.2469908E-002	1.000000000000000E+000	11	1.3065557E-001	1.0001893E-003	-1.835427019971636E-005	-1.6379493E-004	7.5964341E-003	9.4639591E-004	7.6551600E-003	7.1015601E+000	4.525329882615360E-007
3.1610112E+003	1.3056381E+002	1.6551003E+001	1.3160867E+002	-7.2246008E+000	3.103070600723731E+001	-6.2431057E-004	-1.1346613E-003	3.0420742E+000	4.8111554E-002	1.000000000000000E+000	11	1.3071921E-001	9.9324167E-004	-1.784010681359117E-005	-3.2418242E-004	7.5379591E-003	9.5555402E-004	7.5982832E-003	7.2246008E+000	5.141633861251949E-007
2.8172952E+003	1.3154541E+002	1.7017366E+001	1.3264157E+002	-7.3711281E+000	3.179096430999925E+001	-6.1552989E-004	-1.0939015E-003	3.3196740E+000	5.4641273E-002	1.000000000000000E+000	11	1.3076997E-001	9.8588981E-004	-1.736265420947813E-005	1.5698001E-004	7.4768108E-003	9.6723723E-004	7.5391144E-003	7.3711281E+000	4.774526041130413E-007
2.5108032E+003	1.3256717E+002	1.7531452E+001	1.3372137E+002	-7.5334125E+000	3.255068813276739E+001	-5.9595495E-004	-8.6125563E-004	3.6156764E+000	6.2147502E-002	1.000000000000000E+000	11	1.3079233E-001	9.7809592E-004	-1.791018991651718E-005	-3.2418242E-004	7.4136886E-003	9.8042923E-004	7.4782362E-003	7.5334125E+000	-5.475357070390587E-007
2.2378516E+003	1.3365636E+002	1.8136829E+001	1.3488130E+002	-7.7276912E+000	3.331094099552138E+001	-6.1946333E-004	-1.0198269E-003	3.9212768E+000	7.0900083E-002	1.000000000000000E+000	11	1.3082927E-001	9.6995855E-004	-1.904739835965544E-005	-8.0534484E-004	7.3465952E-003	9.9691446E-004	7.4139261E-003	7.7276912E+000	-1.137208443138258E-006
1.9956389E+003	1.3478354E+002	1.8757696E+001	1.3608252E+002	-7.9229102E+000	3.407071207162517E+001	-5.9483637E-004	-8.8972860E-004	4.2516618E+000	8.0781698E-002	1.000000000000000E+000	11	1.3081898E-001	9.6132094E-004	-1.844283784671764E-005	-8.0534484E-004	7.2783371E-003	1.0129192E-003	7.3484825E-003	7.9229102E+000	6.045605129378010E-007
1.7782927E+003	1.3600487E+002	1.9451239E+001	1.3738878E+002	-8.1391726E+000	3.483095968104317E+001	-6.2000414E-004	-1.1106500E-003	4.6011839E+000	9.2227750E-002	1.000000000000000E+000	11	1.3082498E-001	9.5222465E-004	-1.889437772090282E-005	-4.0437613E-004	7.2052977E-003	1.0304922E-003	7.2786147E-003	8.1391726E+000	-4.515398741851752E-007
1.5855076E+003	1.3728781E+002	2.0197041E+001	1.3876550E+002	-8.3690138E+000	3.559068206381926E+001	-6.1536202E-004	-1.0879437E-003	4.9700880E+000	1.0528743E-001	1.000000000000000E+000	11	1.3081771E-001	9.4272499E-004	-1.977594779115397E-005	2.3717375E-004	7.1296622E-003	1.0488774E-003	7.2064018E-003	8.3690138E+000	-8.815700702511506E-007
1.4118373E+003	1.3864894E+002	2.0966871E+001	1.4022531E+002	-8.5992689E+000	3.635217641995405E+001	-6.1370287E-004	-9.7757904E-004	5.3765273E+000	1.2020328E-001	1.000000000000000E+000	11	1.3080737E-001	9.3283708E-004	-2.031708425575602E-005	-5.6476361E-004	7.0512113E-003	1.0663033E-003	7.1313800E-003	8.5992689E+000	-5.411364646020532E-007
1.2587914E+003	1.4010231E+002	2.1776094E+001	1.4178455E+002	-8.8347874E+000	3.711196074940381E+001	-6.1280804E-004	-1.0803133E-003	5.8061247E+000	1.3695836E-001	1.000000000000000E+000	11	1.3079795E-001	9.2251209E-004	-2.133619818994420E-005	-2.4398866E-004	6.9692736E-003	1.0832339E-003	7.0529548E-003	8.8347874E+000	-1.019113934188176E-006
1.1217948E+003	1.4167036E+002	2.2605225E+001	1.4346249E+002	-9.0658131E+000	3.787044195874478E+001	-6.1741268E-004	-1.2176664E-003	6.2762156E+000	1.5582559E-001	1.000000000000000E+000	11	1.3078722E-001	9.1164751E-004	-2.107274499574204E-005	-1.6379493E-004	6.8833879E-003	1.0983280E-003	6.9704629E-003	9.0658131E+000	2.634531942021575E-007
1.0003201E+003	1.4338222E+002	2.3445564E+001	1.4528645E+002	-9.2867002E+000	3.862970911483717E+001	-6.1001157E-004	-1.1164196E-003	6.7861037E+000	1.7672239E-001	1.000000000000000E+000	11	1.3077466E-001	9.0011605E-004	-2.177811964834594E-005	-5.6476361E-004	6.7927409E-003	1.1107350E-003	6.8829544E-003	9.2867002E+000	-7.053746526039006E-007
8.9142657E+002	1.4517622E+002	2.4292225E+001	1.4719460E+002	-9.4992542E+000	3.938842435085098E+001	-6.1610778E-004	-1.1309364E-003	7.3496599E+000	2.0017882E-001	1.000000000000000E+000	11	1.3075449E-001	8.8831037E-004	-2.243383490145870E-005	-4.0437613E-004	6.7005702E-003	1.1212013E-003	6.7937276E-003	9.4992542E+000	-6.557152531127558E-007
7.9423773E+002	1.4710202E+002	2.5126671E+001	1.4923254E+002	-9.6932116E+000	4.014792652026517E+001	-6.2406826E-004	-1.2703384E-003	7.9750733E+000	2.2608799E-001	1.000000000000000E+000	11	1.3074091E-001	8.7608845E-004	-2.215815940436894E-005	-6.4495736E-004	6.6052843E-003	1.1282566E-003	6.7009511E-003	9.6932116E+000	2.756754970897517E-007
7.0750946E+002	1.4915227E+002	2.5910498E+001	1.5138611E+002	-9.8549824E+000	4.091046367646777E+001	-6.1290129E-004	-1.2286496E-003	8.6818476E+000	2.5432649E-001	1.000000000000000E+000	11	1.3072756E-001	8.6353737E-004	-2.316848420950474E-005	-1.6379493E-004	6.5081543E-003	1.1305863E-003	6.6056261E-003	9.8549824E+000	-1.010324805135799E-006
6.3100964E+002	1.5128423E+002	2.6673563E+001	1.5361769E+002	-9.9992924E+000	4.166843632576638E+001	-6.2649179E-004	-1.3788444E-003	9.4559050E+000	2.8509048E-001	1.000000000000000E+000	11	1.3071324E-001	8.5089967E-004	-2.405367077575162E-005	-3.4074546E-006	6.4107841E-003	1.1303126E-003	6.5096668E-003	9.9992924E+000	-8.851865662468798E-007
5.6233929E+002	1.5352773E+002	2.7365276E+001	1.5594749E+002	-1.0106446E+001	4.242490350842127E+001	-6.2183104E-004	-1.3163105E-003	1.0342413E+001	3.1846723E-001	1.000000000000000E+000	11	1.3069579E-001	8.3807559E-004	-2.481017143566310E-005	-4.0437613E-004	6.3129161E-003	1.1252344E-003	6.4124148E-003	1.0106446E+001	-7.565006599114789E-007
5.0144415E+002	1.5585144E+002	2.7989567E+001	1.5834483E+002	-1.0181292E+001	4.318219154435792E+001	-6.2017189E-004	-1.3581867E-003	1.1339696E+001	3.5431206E-001	1.000000000000000E+000	11	1.3068166E-001	8.2529796E-004	-2.514276208075818E-005	-9.6573232E-004	6.2158857E-003	1.1163192E-003	6.3153310E-003	1.0181292E+001	-3.325906450950751E-007
4.4685895E+002	1.5828447E+002	2.8503082E+001	1.6083034E+002	-1.0208138E+001	4.393890126032056E+001	-6.2000408E-004	-1.4674376E-003	1.2495621E+001	3.9246920E-001	1.000000000000000E+000	11	1.3067316E-001	8.1249070E-004	-2.558366016288670E-005	-2.4398866E-004	6.1193085E-003	1.1019348E-003	6.2177326E-003	1.0208138E+001	-4.408980821285202E-007
3.9808920E+002	1.6083318E+002	2.8952700E+001	1.6341838E+002	-1.0204916E+001	4.470170684323966E+001	-6.3009001E-004	-1.3565108E-003	1.3808631E+001	4.3343800E-001	1.000000000000000E+000	11	1.3065754E-001	7.9952780E-004	-2.547110196919918E-005	-4.8456987E-004	6.0224589E-003	1.0841448E-003	6.1192629E-003	1.0204916E+001	1.125581936875187E-007
3.5465955E+002	1.6341850E+002	2.9269987E+001	1.6601909E+002	-1.0154607E+001	4.546193794600549E+001	-6.3143217E-004	-1.3717737E-003	1.5331547E+001	4.7655714E-001	1.000000000000000E+000	11	1.3064191E-001	7.8690896E-004	-2.618453594530487E-005	-8.8553858E-004	5.9290505E-003	1.0619558E-003	6.0234037E-003	1.0154607E+001	-7.134339761056871E-007
3.1631586E+002	1.6606146E+002	2.9457184E+001	1.6865388E+002	-1.0058906E+001	4.621892718196614E+001	-6.2434794E-004	-1.3012369E-003	1.7080790E+001	5.2107191E-001	1.000000000000000E+000	11	1.3063979E-001	7.7460293E-004	-2.578475573293367E-005	-2.4398866E-004	5.8381618E-003	1.0356153E-003	5.9293029E-003	1.0058906E+001	3.997802123711984E-007
2.8189429E+002	1.6873422E+002	2.9512913E+001	1.7129579E+002	-9.9211140E+000	4.697440764444764E+001	-6.2720029E-004	-1.2781589E-003	1.9130299E+001	5.6787473E-001	1.000000000000000E+000	11	1.3063067E-001	7.6260295E-004	-2.673854568011302E-005	-9.6573232E-004	5.7505551E-003	1.0058164E-003	5.8378549E-003	9.9211140E+000	-9.537899471793543E-007
2.5104436E+002	1.7145068E+002	2.9431997E+001	1.7395856E+002	-9.7407103E+000	4.772991637373343E+001	-6.2196160E-004	-1.1945914E-003	2.1540209E+001	6.1659187E-001	1.000000000000000E+000	11	1.3062006E-001	7.5086887E-004	-2.720441294064545E-005	-3.2418242E-004	5.6656222E-003	9.7258628E-004	5.7484955E-003	9.7407103E+000	-4.658672605324283E-007
2.2392513E+002	1.7407709E+002	2.9205992E+001	1.7651012E+002	-9.5241642E+000	4.849271187663544E+001	-6.2045158E-004	-1.1205188E-003	2.4335785E+001	6.6626972E-001	1.000000000000000E+000	11	1.3060948E-001	7.3995464E-004	-2.668459568673522E-005	-8.3601190E-005	5.5873054E-003	9.3741686E-004	5.6653977E-003	9.5241642E+000	5.198172539102329E-007
1.9955299E+002	1.7676106E+002	2.8828184E+001	1.7909645E+002	-9.2628880E+000	4.925422007279121E+001	-6.2319206E-004	-1.0496093E-003	2.7665886E+001	7.1681190E-001	1.000000000000000E+000	11	1.3060784E-001	7.2925980E-004	-2.682664586999130E-005	7.6786280E-005	5.5107744E-003	8.9875911E-004	5.5835834E-003	9.2628880E+000	-1.420501832560861E-007
1.7778128E+002	1.7938406E+002	2.8293690E+001	1.8160170E+002	-8.9632425E+000	5.002223285593209E+001	-6.1349786E-004	-9.9098182E-004	3.1640587E+001	7.6804006E-001	1.000000000000000E+000	11	1.3060179E-001	7.1916613E-004	-2.750130024883320E-005	-8.3601190E-005	5.4393131E-003	8.5792586E-004	5.5065565E-003	8.9632425E+000	-6.746543788419024E-007
1.5842838E+002	1.8191985E+002	2.7647635E+001	1.8400876E+002	-8.6415148E+000	5.078872942567978E+001	-6.1711459E-004	-1.0414191E-003	3.6335335E+001	8.2029140E-001	1.000000000000000E+000	11	1.3058685E-001	7.0967735E-004	-2.735308399207133E-005	1.5698001E-004	5.3728297E-003	8.1654661E-004	5.4345238E-003	8.6415148E+000	1.482162567618699E-007
1.4131134E+002	1.8437170E+002	2.6851292E+001	1.8631671E+002	-8.2861147E+000	5.154189439478796E+001	-6.2132784E-004	-1.0492373E-003	4.1944782E+001	8.7117356E-001	1.000000000000000E+000	11	1.3059638E-001	7.0093758E-004	-2.821051778597919E-005	-1.6379493E-004	5.3111752E-003	7.7350222E-004	5.3672050E-003	8.2861147E+000	-8.574337939078538E-007
1.2584569E+002	1.8670642E+002	2.5965935E+001	1.8850336E+002	-7.9175458E+000	5.229739872398204E+001	-6.2322937E-004	-1.0315580E-003	4.8705479E+001	9.2416084E-001	1.000000000000000E+000	11	1.3058901E-001	6.9276756E-004	-2.782022563874327E-005	2.3717375E-004	5.2543748E-003	7.3074485E-004	5.3049452E-003	7.9175458E+000	3.902921472359189E-007
1.1218996E+002	1.8888719E+002	2.4960447E+001	1.9052925E+002	-7.5277205E+000	5.304285667941440E+001	-6.2386319E-004	-9.9079625E-004	5.6834728E+001	9.7542799E-001	1.000000000000000E+000	11	1.3058078E-001	6.8535819E-004	-2.722145181410532E-005	-3.2418242E-004	5.2033039E-003	6.8758917E-004	5.2485378E-003	7.5277205E+000	5.987738246379496E-007
1.0003201E+002	1.9096033E+002	2.3869429E+001	1.9244635E+002	-7.1248355E+000	5.380268548884487E+001	-6.1655522E-004	-9.2044624E-004	6.6655975E+001	1.0254247E+000	1.000000000000000E+000	11	1.3057606E-001	6.7850627E-004	-2.741071058263949E-005	-4.0437613E-004	5.1561291E-003	6.4449961E-004	5.1962533E-003	7.1248355E+000	-1.892587685341724E-007
8.9115974E+001	1.9285817E+002	2.2712015E+001	1.9419090E+002	-6.7165236E+000	5.456973037861462E+001	-6.2595122E-004	-1.0410489E-003	7.8633736E+001	1.0756289E+000	1.000000000000000E+000	11	1.3058169E-001	6.7243981E-004	-2.818995788865621E-005	1.5698001E-004	5.1142299E-003	6.0227927E-004	5.1495717E-003	6.7165236E+000	-7.792473060167132E-007
7.9415527E+001	1.9463847E+002	2.1521389E+001	1.9582468E+002	-6.3096266E+000	5.533420596152428E+001	-6.2841212E-004	-9.8893605E-004	9.3120300E+001	1.1247349E+000	1.000000000000000E+000	11	1.3058077E-001	6.6682487E-004	-2.767800829446863E-005	-2.4398866E-004	5.0756754E-003	5.6122302E-004	5.1066088E-003	6.3096266E+000	5.119495941875765E-007
7.0838745E+001	1.9622314E+002	2.0331419E+001	1.9727364E+002	-5.9155226E+000	5.608537530389731E+001	-6.3066778E-004	-9.7628066E-004	1.1050491E+002	1.1737589E+000	1.000000000000000E+000	11	1.3057216E-001	6.6188344E-004	-2.826906352874185E-005	-7.2515110E-004	5.0421078E-003	5.2243180E-004	5.0691012E-003	5.9155226E+000	-5.910552342732251E-007
6.3082302E+001	1.9772144E+002	1.9098293E+001	1.9864166E+002	-5.5171938E+000	5.686584062100155E+001	-6.2593259E-004	-1.0470066E-003	1.3210463E+002	1.2211429E+000	1.000000000000000E+000	11	1.3057511E-001	6.5733999E-004	-2.850814494606867E-005	-4.0437613E-004	5.0108694E-003	4.8400951E-004	5.0341906E-003	5.5171938E+000	-2.390814173268147E-007
5.6241817E+001	1.9904173E+002	1.7881571E+001	1.9984334E+002	-5.1335740E+000	5.761031150966301E+001	-6.3023902E-004	-9.8651741E-004	1.5825417E+002	1.2670306E+000	1.000000000000000E+000	11	1.3057572E-001	6.5339037E-004	-2.910158886656336E-005	-5.6476361E-004	4.9838480E-003	4.4774043E-004	5.0039198E-003	5.1335740E+000	-5.934439204946928E-007
5.0144413E+001	2.0019392E+002	1.6695770E+001	2.0088892E+002	-4.7673206E+000	5.836717834559386E+001	-6.2818831E-004	-9.4631559E-004	1.9010394E+002	1.3130827E+000	1.000000000000000E+000	11	1.3056843E-001	6.4995338E-004	-2.966892407920558E-005	-6.4495736E-004	4.9606538E-003	4.1370856E-004	4.9778754E-003	4.7673206E+000	-5.673352126422169E-007
4.4671219E+001	2.0124190E+002	1.5531007E+001	2.0184032E+002	-4.4131007E+000	5.913120664856979E+001	-6.2421744E-004	-9.3626830E-004	2.2939964E+002	1.3582387E+000	1.000000000000000E+000	11	1.3057069E-001	6.4690097E-004	-2.992521282450192E-005	-5.6476361E-004	4.9397228E-003	3.8122712E-004	4.9544116E-003	4.4131007E+000	-2.562887452963384E-007
3.9808922E+001	2.0216890E+002	1.4409545E+001	2.0268176E+002	-4.0768504E+000	5.989372396482213E+001	-6.2227855E-004	-9.3049911E-004	2.7745303E+002	1.4023637E+000	1.000000000000000E+000	11	1.3056715E-001	6.4419780E-004	-2.941642000634986E-005	-4.8456987E-004	4.9213581E-003	3.5076879E-004	4.9338429E-003	4.0768504E+000	5.087928181520603E-007
3.5465305E+001	2.0297841E+002	1.3345180E+001	2.0341664E+002	-3.7616000E+000	6.064412138707121E+001	-6.2211073E-004	-8.3539443E-004	3.3627301E+002	1.4473311E+000	1.000000000000000E+000	11	1.3057554E-001	6.4191176E-004	-3.051541647250815E-005	-4.0437613E-004	4.9054278E-003	3.2251616E-004	4.9160188E-003	3.7616000E+000	-1.098996466158294E-006
3.1629551E+001	2.0372740E+002	1.2312534E+001	2.0409912E+002	-3.4585392E+000	6.136845371479285E+001	-6.2082446E-004	-8.3818560E-004	4.0867651E+002	1.4872785E+000	1.000000000000000E+000	11	1.3057248E-001	6.3975033E-004	-3.143010566270884E-005	3.1736746E-004	4.8906566E-003	2.9557326E-004	4.8995800E-003	3.4585392E+000	-9.146891902006857E-007
2.8170074E+001	2.0437300E+002	1.1321239E+001	2.0468633E+002	-3.1706583E+000	6.217373799311463E+001	-6.1621965E-004	-8.7001111E-004	4.9904318E+002	1.5266815E+000	1.000000000000000E+000	11	1.3057198E-001	6.3791254E-004	-3.130478522813852E-005	-5.6476361E-004	4.8780455E-003	2.7021926E-004	4.8855240E-003	3.1706583E+000	1.253204345703129E-007
2.5104435E+001	2.0490471E+002	1.0414635E+001	2.0516920E+002	-2.9096529E+000	6.292992229567608E+001	-6.2181248E-004	-8.5344701E-004	6.0873132E+002	1.5685176E+000	1.000000000000000E+000	11	1.3056490E-001	6.3637667E-004	-3.108840450356507E-005	-8.3601190E-005	4.8677423E-003	2.4741140E-004	4.8740259E-003	2.9096529E+000	2.163807245734558E-007
2.2385387E+001	2.0540976E+002	9.5681658E+000	2.0563249E+002	-2.6669595E+000	6.361642342156847E+001	-6.2324805E-004	-8.8545930E-004	7.4306506E+002	1.6087952E+000	1.000000000000000E+000	11	1.3056955E-001	6.3496555E-004	-3.128842653155779E-005	-3.2418242E-004	4.8577776E-003	2.2627950E-004	4.8630447E-003	2.6669595E+000	-2.000220279927228E-007
1.9955299E+001	2.0582782E+002	8.7674646E+000	2.0601447E+002	-2.4391029E+000	6.437819913777639E+001	-6.2283780E-004	-9.5618400E-004	9.0967834E+002	1.6475571E+000	1.000000000000000E+000	11	1.3057068E-001	6.3379377E-004	-3.038726097096171E-005	-6.4495736E-004	4.8496304E-003	2.0657539E-004	4.8540281E-003	2.4391029E+000	9.011655605960829E-007
1.7796129E+001	2.0619591E+002	8.0362072E+000	2.0635245E+002	-2.2318959E+000	6.522253275118419E+001	-6.5558392E-004	-1.1769164E-003	1.1128676E+003	1.6878213E+000	1.000000000000000E+000	11	1.3057370E-001	6.3277030E-004	-3.071415986368225E-005	-6.4495736E-004	4.8424015E-003	1.8872606E-004	4.8460779E-003	2.2318959E+000	-3.268988927205387E-007
1.5857576E+001	2.0655315E+002	7.3696842E+000	2.0668457E+002	-2.0434101E+000	6.594493803888327E+001	-6.2224129E-004	-8.9364860E-004	1.3618661E+003	1.7314744E+000	1.000000000000000E+000	11	1.3057046E-001	6.3173781E-004	-3.358481023481464E-005	-4.8456987E-004	4.8352140E-003	1.7251735E-004	4.8382906E-003	2.0434101E+000	-2.870650371132395E-006
1.4118974E+001	2.0684578E+002	6.7257648E+000	2.0695509E+002	-1.8623644E+000	6.674723053027992E+001	-6.1640615E-004	-9.2193880E-004	1.6760050E+003	1.7701352E+000	1.000000000000000E+000	11	1.3057333E-001	6.3092593E-004	-3.296534273570493E-005	-3.2418242E-004	4.8294137E-003	1.5703245E-004	4.8319660E-003	1.8623644E+000	6.194674991097116E-007
1.2600808E+001	2.0707205E+002	6.1409416E+000	2.0716309E+002	-1.6986693E+000	6.763788313264376E+001	-6.3750974E-004	-1.0303508E-003	2.0567749E+003	1.8073071E+000	1.000000000000000E+000	11	1.3057595E-001	6.3030515E-004	-3.107738526873173E-005	-4.8456987E-004	4.8249937E-003	1.4309031E-004	4.8271148E-003	1.6986693E+000	1.887957466973196E-006
1.1224856E+001	2.0729625E+002	5.5842471E+000	2.0737144E+002	-1.5430884E+000	6.832192465846310E+001	-6.2542915E-004	-8.8992633E-004	2.5390701E+003	1.8412216E+000	1.000000000000000E+000	11	1.3057372E-001	6.2966102E-004	-3.541202281073796E-005	-1.6379493E-004	4.8205163E-003	1.2985741E-004	4.8222649E-003	1.5430884E+000	-4.334637542006224E-006
1.0003201E+001	2.0748210E+002	5.0944519E+000	2.0754463E+002	-1.4065404E+000	6.908269298794039E+001	-6.2930689E-004	-1.0081105E-003	3.1230842E+003	1.8817227E+000	1.000000000000000E+000	11	1.3055594E-001	6.2904996E-004	-3.328088135198353E-005	-4.8456987E-004	4.8167887E-003	1.1826996E-004	4.8182406E-003	1.4065404E+000	2.131141458754429E-006
8.9183798E+000	2.0761673E+002	4.6424522E+000	2.0766862E+002	-1.2809594E+000	6.992701436136849E+001	-6.5893028E-004	-1.2152573E-003	3.8440300E+003	1.9210552E+000	1.000000000000000E+000	11	1.3057616E-001	6.2877173E-004	-3.378640959006811E-005	-4.0437613E-004	4.8141605E-003	1.0764792E-004	4.8153638E-003	1.2809594E+000	-5.055282380845837E-007
7.9395342E+000	2.0775764E+002	4.2133131E+000	2.0780037E+002	-1.1617959E+000	7.086569608595892E+001	-6.2775030E-004	-1.0449614E-003	4.7577476E+003	1.9559431E+000	1.000000000000000E+000	11	1.3057588E-001	6.2837172E-004	-3.334328947933662E-005	-6.4495736E-004	4.8113219E-003	9.7573327E-005	4.8123109E-003	1.1617959E+000	4.431201107314963E-007
7.0765405E+000	2.0788936E+002	3.8293014E+000	2.0792462E+002	-1.0552633E+000	7.142402339246473E+001	-6.2971702E-004	-1.0196499E-003	5.8732646E+003	1.9920803E+000	1.000000000000000E+000	11	1.3056901E-001	6.2796322E-004	-3.257361613590567E-005	1.5698001E-004	4.8086196E-003	8.8574299E-005	4.8094355E-003	1.0552633E+000	7.696733434309449E-007
6.3105822E+000	2.0798730E+002	3.4848964E+000	2.0801649E+002	-9.5991999E-001	7.204420043525170E+001	-6.4656994E-004	-1.0352833E-003	7.2370376E+003	2.0311642E+000	1.000000000000000E+000	11	1.3055858E-001	6.2763569E-004	-3.071142550892202E-005	-9.6573232E-004	4.8066364E-003	8.0536789E-005	4.8073111E-003	9.5991999E-001	1.862190626983650E-006
5.6205034E+000	2.0810123E+002	3.1558425E+000	2.0812515E+002	-8.6882043E-001	7.273065596121160E+001	-6.2500039E-004	-9.7460934E-004	8.9728330E+003	2.0630565E+000	1.000000000000000E+000	11	1.3056466E-001	6.2733726E-004	-3.056521212312813E-005	4.7775495E-004	4.8042489E-003	7.2856143E-005	4.8048012E-003	8.6882043E-001	1.462133857938928E-007
5.0144415E+000	2.0817586E+002	2.8799396E+000	2.0819577E+002	-7.9258889E-001	7.348817391713965E+001	-6.0866936E-004	-9.5320627E-004	1.1020827E+004	2.1088085E+000	1.000000000000000E+000	11	1.3057683E-001	6.2718295E-004	-3.644377681754425E-005	7.6786280E-005	4.8027118E-003	6.6441520E-005	4.8031714E-003	7.9258889E-001	-5.878564694416126E-006
4.4693937E+000	2.0822540E+002	2.6088378E+000	2.0824174E+002	-7.1781623E-001	7.432949033044861E+001	-6.5123086E-004	-1.3272077E-003	1.3649741E+004	2.1423135E+000	1.000000000000000E+000	11	1.3057344E-001	6.2702817E-004	-4.319223601641797E-005	-1.6379493E-004	4.8017344E-003	6.0160506E-005	4.8021111E-003	7.1781623E-001	-6.748459198873713E-006
3.9778514E+000	2.0831100E+002	2.3644102E+000	2.0832442E+002	-6.5030122E-001	7.526620456160163E+001	-6.3364144E-004	-1.0647833E-003	1.6921885E+004	2.1797869E+000	1.000000000000000E+000	11	1.3058218E-001	6.2682130E-004	-3.579918319614707E-005	-1.6379493E-004	4.7998964E-003	5.4480672E-005	4.8002056E-003	6.5030122E-001	7.393052820270898E-006
3.5511365E+000	2.0835510E+002	2.1494615E+000	2.0836620E+002	-5.9106159E-001	7.630743693103432E+001	-6.2044233E-004	-1.0543606E-003	2.0850818E+004	2.2188499E+000	1.000000000000000E+000	11	1.3057370E-001	6.2665495E-004	-2.914642020075452E-005	-3.2418242E-004	4.7989879E-003	4.9507973E-005	4.7992431E-003	5.9106159E-001	6.652762995392551E-006
3.1603966E+000	2.0837570E+002	1.9523242E+000	2.0838484E+002	-5.3680283E-001	7.746924066622159E+001	-6.1453250E-004	-9.9843321E-004	2.5794471E+004	2.2641137E+000	1.000000000000000E+000	11	1.3057816E-001	6.2662025E-004	-4.446403899004488E-005	-8.0534484E-004	4.7986032E-003	4.4959317E-005	4.7988137E-003	5.3680283E-001	-1.531761878929037E-005
2.8183618E+000	2.0840144E+002	1.7828239E+000	2.0840907E+002	-4.9013954E-001	7.876463771447743E+001	-6.2960200E-004	-1.0680864E-003	3.1674877E+004	2.3179207E+000	1.000000000000000E+000	11	1.3058048E-001	6.2655855E-004	-3.873668166241400E-005	-8.3601190E-005	4.7980798E-003	4.1046409E-005	4.7982554E-003	4.9013954E-001	5.727357327630878E-006
2.5136740E+000	2.0840541E+002	1.6006688E+000	2.0841156E+002	-4.4005460E-001	8.020867164972879E+001	-6.2087103E-004	-1.0296854E-003	3.9555758E+004	2.3332918E+000	1.000000000000000E+000	11	1.3057783E-001	6.2653836E-004	-2.863444718264327E-005	-3.2418242E-004	4.7980566E-003	3.6851725E-005	4.7981981E-003	4.4005460E-001	1.010223447977073E-005
2.2398219E+000	2.0842067E+002	1.4560552E+000	2.0842575E+002	-4.0026960E-001	8.182331385972793E+001	-6.3283509E-004	-1.1568640E-003	4.8801008E+004	2.3816707E+000	1.000000000000000E+000	11	1.3058281E-001	6.2651956E-004	-5.176522511857042E-005	-6.4495736E-004	4.7977548E-003	3.3517765E-005	4.7978717E-003	4.0026960E-001	-2.313077793592715E-005
1.9970604E+000	2.0842648E+002	1.3241764E+000	2.0843069E+002	-3.6400697E-001	8.362668807874434E+001	-6.1575830E-004	-1.0122980E-003	6.0184277E+004	2.4291337E+000	1.000000000000000E+000	11	1.3058105E-001	6.2649627E-004	-2.863650124063275E-005	-5.6476361E-004	4.7976612E-003	3.0480527E-005	4.7977581E-003	3.6400697E-001	2.312872387793767E-005
1.7796129E+000	2.0839893E+002	1.2128657E+000	2.0840245E+002	-3.3345327E-001	8.564483918792394E+001	-6.2365498E-004	-1.0966117E-003	7.3736391E+004	2.4974780E+000	1.000000000000000E+000	11	1.3058013E-001	6.2657672E-004	-4.311191644588588E-005	-4.8456987E-004	4.7983266E-003	2.7925893E-005	4.7984081E-003	3.3345327E-001	-1.447541520525313E-005
1.5846854E+000	2.0836742E+002	1.0988837E+000	2.0837032E+002	-3.0216247E-001	8.790399921522476E+001	-6.1279366E-004	-9.7667822E-004	9.1395609E+004	2.5418923E+000	1.000000000000000E+000	11	1.3058236E-001	6.2668411E-004	-4.621882061807567E-005	-6.4495736E-004	4.7990815E-003	2.5309293E-005	4.7991481E-003	3.0216247E-001	-3.106904172189791E-006
1.4122382E+000	2.0831616E+002	9.8364711E-001	2.0831848E+002	-2.7054268E-001	9.043318120201002E+001	-6.1320572E-004	-1.0263348E-003	1.1457051E+005	2.5544410E+000	1.000000000000000E+000	11	1.3058212E-001	6.2683888E-004	-2.647958403154573E-005	-3.2418242E-004	4.8002885E-003	2.2666462E-005	4.8003420E-003	2.7054268E-001	1.973923658652994E-005
1.2596743E+000	2.0827040E+002	8.9209199E-001	2.0827231E+002	-2.4541555E-001	9.326104389631655E+001	-6.1581185E-004	-1.0745134E-003	1.4162900E+005	2.5984144E+000	1.000000000000000E+000	11	1.3058385E-001	6.2698615E-004	-6.344924755901148E-005	-5.6476361E-004	4.8013623E-003	2.0565847E-005	4.8014065E-003	2.4541555E-001	-3.696966352746575E-005
1.1224856E+000	2.0822478E+002	8.0777234E-001	2.0822635E+002	-2.2226803E-001	9.642910530013614E+001	-6.1519205E-004	-1.0101576E-003	1.7552959E+005	2.6415384E+000	1.000000000000000E+000	11	1.3058402E-001	6.2712532E-004	-1.656956728564283E-005	-3.4074546E-006	4.8024300E-003	1.8630204E-005	4.8024664E-003	2.2226803E-001	4.687968027336865E-005
1.0000638E+000	2.0817191E+002	7.3435062E-001	2.0817320E+002	-2.0211668E-001	9.997821125536575E+001	-6.1574409E-004	-1.0336539E-003	2.1671498E+005	2.6967845E+000	1.000000000000000E+000	11	1.3058257E-001	6.2727847E-004	-7.191206024517224E-005	-8.0534484E-004	4.8036627E-003	1.6945478E-005	4.8036925E-003	2.0211668E-001	-5.534249295952940E-005