EC-Lab ASCII FILE
Nb header lines : 60                          

Potentio Electrochemical Impedance Spectroscopy

Run on channel : 4 (SN 4192)
User : 
CE vs. WE compliance from -10 V to 10 V
Electrode connection : standard
Ewe ctrl range : min = -10.00 V, max = 10.00 V
Acquisition started on : 02/20/2020 14:50:54
Technique started on : 02/20/2020 14:50:55
Saved on :
	File : DE_65_8_60.mpr
	Directory : P:\Chemistry\Data\VMP3\Kyler\DOE\DE_65\60C\
	Host : 10.0.4.64
Device : VMP3 (SN 1432)
Address : USB
EC-Lab for windows v11.33 (software)
Internet server v11.32 (firmware)
Command interpretor v11.33 (firmware)
Electrode material : 
Initial state : 
Electrolyte : 
Comments : 
Electrode surface area : 0.001 cm²
Characteristic mass : 0.001 g
Equivalent Weight : 0.000 g/eq.
Density : 0.000 g/cm3
Record Analogic IN 1
Cycle Definition : Charge/Discharge alternance
Mode                Single sine         
E (V)               0.0000              
vs.                 Eoc                 
tE (h:m:s)          0:00:0.0000         
record              0                   
dI                  1.000               
unit dI             mA                  
dt (s)              0.000               
fi                  1.000               
unit fi             MHz                 
ff                  1.000               
unit ff             Hz                  
Nd                  20                  
Points              per decade          
spacing             Logarithmic         
Va (mV)             128.0               
pw                  0.50                
Na                  3                   
corr                0                   
E range min (V)     -10.000             
E range max (V)     10.000              
I Range             Auto                
Bandwidth           5                   
nc cycles           0                   
goto Ns'            0                   
nr cycles           0                   
inc. cycle          1                   

freq/Hz	Re(Z)/Ohm	-Im(Z)/Ohm	|Z|/Ohm	Phase(Z)/deg	time/s	<Ewe>/V	<I>/mA	Cs/µF	Cp/µF	cycle number	I Range	|Ewe|/V	|I|/A	(Q-Qo)/mA.h	Analog IN 1/V	Re(Y)/Ohm-1	Im(Y)/Ohm-1	|Y|/Ohm-1	Phase(Y)/deg	dq/mA.h	
1.0000186E+006	1.2586422E+002	1.3463983E+002	1.8430867E+002	-4.6929398E+001	1.950481185951503E+000	-3.0748281E-001	6.8478653E-004	1.1820572E-003	6.3080352E-004	1.000000000000000E+000	11	5.2041481E-003	2.8236047E-005	1.603017818411495E-007	-8.8553858E-004	3.7051924E-003	3.9635291E-003	5.4256809E-003	4.6929398E+001	1.603017818411495E-007
8.9124669E+005	1.3818518E+002	1.3817288E+002	1.9541466E+002	-4.4997452E+001	2.545470414188458E+000	-3.0723530E-001	6.9297641E-004	1.2924073E-003	6.4614613E-004	1.000000000000000E+000	11	7.6595340E-003	3.9196311E-005	2.466112313543110E-007	-4.0437613E-004	3.6186548E-003	3.6183330E-003	5.1173232E-003	4.4997452E+001	8.630944951316146E-008
7.9433269E+005	1.5197856E+002	1.4223561E+002	2.0815488E+002	-4.3103333E+001	3.140477429114981E+000	-3.0705565E-001	1.2297346E-003	1.4086702E-003	6.5773790E-004	1.000000000000000E+000	11	1.0720746E-002	5.1503695E-005	3.922123574791638E-007	-4.0437613E-004	3.5075927E-003	3.2827300E-003	4.8041153E-003	4.3103333E+001	1.456011261248528E-007
7.0794981E+005	1.6577869E+002	1.4654860E+002	2.2126695E+002	-4.1476727E+001	3.736485057423124E+000	-3.0693093E-001	1.5591610E-003	1.5340374E-003	6.7292427E-004	1.000000000000000E+000	11	1.4747689E-002	6.6651119E-005	5.719349140872510E-007	-5.6476361E-004	3.3860675E-003	2.9932882E-003	4.5194277E-003	4.1476727E+001	1.797225566080872E-007
6.3095681E+005	1.7973289E+002	1.4995822E+002	2.3407559E+002	-3.9839573E+001	4.331493485689862E+000	-3.0683956E-001	1.6354694E-003	1.6820939E-003	6.9036463E-004	1.000000000000000E+000	11	1.9650325E-002	8.3948631E-005	7.993842314273126E-007	-1.6379493E-004	3.2803132E-003	2.7368944E-003	4.2721243E-003	3.9839573E+001	2.274493173400616E-007
5.6234225E+005	1.9487523E+002	1.5290819E+002	2.4770399E+002	-3.8119385E+001	4.926487033982994E+000	-3.0674320E-001	1.8493166E-003	1.8509245E-003	7.0531666E-004	1.000000000000000E+000	11	2.5401631E-002	1.0254833E-004	1.152257588318915E-006	-5.6476361E-004	3.1760740E-003	2.4920958E-003	4.0370766E-003	3.8119385E+001	3.528733568916020E-007
5.0120619E+005	2.1037218E+002	1.5534984E+002	2.6151486E+002	-3.6444103E+001	5.522479995590402E+000	-3.0663198E-001	1.8828184E-003	2.0440565E-003	7.2130968E-004	1.000000000000000E+000	11	3.1982198E-002	1.2229591E-004	1.549249299648687E-006	-4.0437613E-004	3.0760653E-003	2.2715279E-003	3.8238745E-003	3.6444103E+001	3.969917113297722E-007
4.4668572E+005	2.2626010E+002	1.5644717E+002	2.7508063E+002	-3.4661858E+001	6.118480450561037E+000	-3.0654868E-001	2.0067715E-003	2.2774576E-003	7.3665776E-004	1.000000000000000E+000	11	3.9441161E-002	1.4338037E-004	1.966889053195094E-006	7.6786280E-005	2.9901154E-003	2.0675105E-003	3.6352978E-003	3.4661858E+001	4.176397535464071E-007
3.9810347E+005	2.4407422E+002	1.5754784E+002	2.9050568E+002	-3.2841900E+001	6.713492558832513E+000	-3.0649030E-001	2.1541766E-003	2.5375334E-003	7.4632396E-004	1.000000000000000E+000	11	4.7782149E-002	1.6447924E-004	2.508410353173935E-006	-8.8553858E-004	2.8920956E-003	1.8668233E-003	3.4422735E-003	3.2841900E+001	5.415212999788411E-007
3.5480997E+005	2.6008334E+002	1.5639101E+002	3.0348227E+002	-3.1018963E+001	7.309472400491359E+000	-3.0648765E-001	2.2282519E-003	2.8682204E-003	7.6167454E-004	1.000000000000000E+000	11	5.7061810E-002	1.8802354E-004	2.876304600767778E-006	-3.2418242E-004	2.8238776E-003	1.6980291E-003	3.2950854E-003	3.1018963E+001	3.678942475938433E-007
3.1622997E+005	2.7545206E+002	1.5381873E+002	3.1549014E+002	-2.9179989E+001	7.904484268772649E+000	-3.0650011E-001	2.2418392E-003	3.2719595E-003	7.7777635E-004	1.000000000000000E+000	11	6.7336746E-002	2.1343534E-004	3.377647040145045E-006	-2.4398866E-004	2.7674160E-003	1.5453883E-003	3.1696712E-003	2.9179989E+001	5.013424393772664E-007
2.8183453E+005	2.8949225E+002	1.4989624E+002	3.2599792E+002	-2.7374676E+001	8.500491203711135E+000	-3.0649230E-001	2.3376893E-003	3.7673430E-003	7.9650222E-004	1.000000000000000E+000	11	7.8615166E-002	2.4115235E-004	3.688895025723873E-006	-4.8456987E-004	2.7240010E-003	1.4104609E-003	3.0675041E-003	2.7374676E+001	3.112479855788280E-007
2.5118764E+005	3.0419150E+002	1.4589258E+002	3.3736792E+002	-2.5622734E+001	9.096493552060565E+000	-3.0650756E-001	2.2718052E-003	4.3429886E-003	8.1217103E-004	1.000000000000000E+000	11	9.1037005E-002	2.6984487E-004	4.256410411080449E-006	-8.3601190E-005	2.6726341E-003	1.2818158E-003	2.9641229E-003	2.5622734E+001	5.675153853565762E-007
2.2387173E+005	3.1707666E+002	1.4064844E+002	3.4687115E+002	-2.3921051E+001	9.691493153601186E+000	-3.0653509E-001	2.2466790E-003	5.0545898E-003	8.3103514E-004	1.000000000000000E+000	11	1.0463184E-001	3.0164470E-004	4.791128752486353E-006	-3.4074546E-006	2.6352869E-003	1.1689570E-003	2.8829149E-003	2.3921051E+001	5.347183414059046E-007
1.9954350E+005	3.2869495E+002	1.3480659E+002	3.5526495E+002	-2.2299847E+001	1.015147666880512E+001	-3.0646855E-001	2.2922803E-003	5.9165894E-003	8.5190067E-004	1.000000000000000E+000	11	1.1934108E-001	3.3592133E-004	4.853986957543788E-006	-1.0459260E-003	2.6042836E-003	1.0680864E-003	2.8148005E-003	2.2299847E+001	6.285820505743452E-008
1.7783180E+005	3.4019168E+002	1.2909605E+002	3.6386285E+002	-2.0780769E+001	1.061049015729805E+001	-3.0650976E-001	2.1925229E-003	6.9326255E-003	8.7266637E-004	1.000000000000000E+000	11	1.3521028E-001	3.7159681E-004	5.330404125142700E-006	-1.6379493E-004	2.5694978E-003	9.7507390E-004	2.7482882E-003	2.0780769E+001	4.764171675989119E-007
1.5848613E+005	3.4971454E+002	1.2276015E+002	3.7063501E+002	-1.9342583E+001	1.120648519889801E+001	-3.0647793E-001	2.3358311E-003	8.1803417E-003	8.9741522E-004	1.000000000000000E+000	11	1.2980977E-001	3.5023611E-004	5.003731116485546E-006	-3.4074546E-006	2.5457796E-003	8.9364400E-004	2.6980722E-003	1.9342583E+001	-3.266730086571537E-007
1.4125594E+005	3.5844043E+002	1.1656194E+002	3.7691675E+002	-1.8014109E+001	1.180247320057242E+001	-3.0646676E-001	2.4054388E-003	9.6662194E-003	9.2444126E-004	1.000000000000000E+000	11	1.2989028E-001	3.4461264E-004	5.445923688102792E-006	7.6786280E-005	2.5230516E-003	8.2047610E-004	2.6531059E-003	1.8014109E+001	4.421925716172456E-007
1.2590930E+005	3.6639615E+002	1.1044638E+002	3.8268073E+002	-1.6774897E+001	1.239949354893179E+001	-3.0645069E-001	2.2986077E-003	1.1444869E-002	9.5332426E-004	1.000000000000000E+000	11	1.2962073E-001	3.3871768E-004	5.727962701475109E-006	7.6786280E-005	2.5019448E-003	7.5418572E-004	2.6131445E-003	1.6774897E+001	2.820390133723167E-007
1.1220494E+005	3.7357193E+002	1.0453606E+002	3.8792239E+002	-1.5633132E+001	1.299547336387332E+001	-3.0641922E-001	2.1703739E-003	1.3568818E-002	9.8533649E-004	1.000000000000000E+000	11	1.2950046E-001	3.3383086E-004	6.261451437532540E-006	-7.2515110E-004	2.4824732E-003	6.9466664E-004	2.5778352E-003	1.5633132E+001	5.334887360574312E-007
1.0000371E+005	3.8020374E+002	9.8866394E+001	3.9284787E+002	-1.4576110E+001	1.359148259219364E+001	-3.0642852E-001	2.3088444E-003	1.6097384E-002	1.0195391E-003	1.000000000000000E+000	11	1.2953529E-001	3.2973397E-004	6.230093109402029E-006	-8.0534484E-004	2.4635852E-003	6.4061908E-004	2.5455146E-003	1.4576110E+001	-3.135832813051068E-008
8.9129305E+004	3.8612909E+002	9.3648148E+001	3.9732309E+002	-1.3632754E+001	1.418749480714905E+001	-3.0642375E-001	2.2811121E-003	1.9067792E-002	1.0592811E-003	1.000000000000000E+000	11	1.2933356E-001	3.2551232E-004	7.333058352294352E-006	-4.0437613E-004	2.4459348E-003	5.9321424E-004	2.5168434E-003	1.3632754E+001	1.102965242892323E-006
7.9433273E+004	3.9152530E+002	8.8654297E+001	4.0143698E+002	-1.2758514E+001	1.478347982213018E+001	-3.0641791E-001	2.3134965E-003	2.2600491E-002	1.1022566E-003	1.000000000000000E+000	11	1.2934087E-001	3.2219471E-004	8.102507795704392E-006	-8.3601190E-005	2.4295459E-003	5.5012963E-004	2.4910511E-003	1.2758514E+001	7.694494434100399E-007
7.0794977E+004	3.9643271E+002	8.4126831E+001	4.0526068E+002	-1.1980979E+001	1.524247957728221E+001	-3.0642787E-001	2.4117664E-003	2.6722873E-002	1.1515513E-003	1.000000000000000E+000	11	1.4013427E-001	3.4578799E-004	8.452866400692275E-006	-4.0437613E-004	2.4137958E-003	5.1223068E-004	2.4675475E-003	1.1980979E+001	3.503586049878829E-007
6.3093828E+004	4.0072513E+002	7.9953545E+001	4.0862354E+002	-1.1283606E+001	1.583848363228026E+001	-3.0641460E-001	2.3021430E-003	3.1549722E-002	1.2078811E-003	1.000000000000000E+000	11	1.3021642E-001	3.1867088E-004	8.539961297061786E-006	-1.6379493E-004	2.3999368E-003	4.7884061E-004	2.4472403E-003	1.1283606E+001	8.709489636951102E-008
5.6237012E+004	4.0453165E+002	7.6216011E+001	4.1164880E+002	-1.0669770E+001	1.629847706746659E+001	-3.0642891E-001	2.3466258E-003	3.7132286E-002	1.2728886E-003	1.000000000000000E+000	11	1.3921097E-001	3.3817897E-004	8.586181468199356E-006	-6.4495736E-004	2.3872550E-003	4.4977214E-004	2.4292553E-003	1.0669770E+001	4.622017113757010E-008
5.0122477E+004	4.0825156E+002	7.2929771E+001	4.1471445E+002	-1.0128441E+001	1.689348381568561E+001	-3.0640626E-001	2.2986063E-003	4.3539431E-002	1.3464621E-003	1.000000000000000E+000	11	1.2991068E-001	3.1325332E-004	8.530476164897361E-006	-3.2418242E-004	2.3737201E-003	4.2403972E-004	2.4112978E-003	1.0128441E+001	-5.570530330199564E-008
4.4666715E+004	4.1147354E+002	7.0021362E+001	4.1738885E+002	-9.6576347E+000	1.735347266422468E+001	-3.0642045E-001	2.3000964E-003	5.0886847E-002	1.4321384E-003	1.000000000000000E+000	11	1.3699356E-001	3.2821565E-004	8.763737504640529E-006	-9.6573232E-004	2.3618930E-003	4.0192853E-004	2.3958473E-003	9.6576347E+000	2.332613397431685E-007
3.9814063E+004	4.1454132E+002	6.7632248E+001	4.2002219E+002	-9.2661438E+000	1.794947909252369E+001	-3.0639216E-001	2.3518351E-003	5.9105765E-002	1.5324736E-003	1.000000000000000E+000	11	1.2953430E-001	3.0839871E-004	9.229303977794997E-006	-3.4074546E-006	2.3497592E-003	3.8336226E-004	2.3808265E-003	9.2661438E+000	4.655664731544675E-007
3.5480996E+004	4.1740488E+002	6.5690826E+001	4.2254245E+002	-8.9438019E+000	1.840949714105227E+001	-3.0641079E-001	2.2805533E-003	6.8284102E-002	1.6503967E-003	1.000000000000000E+000	11	1.3480619E-001	3.1903584E-004	9.333733849423879E-006	-8.3601190E-005	2.3378511E-003	3.6792902E-004	2.3666262E-003	8.9438019E+000	1.044298716288828E-007
3.1621143E+004	4.1977686E+002	6.4042519E+001	4.2463403E+002	-8.6743431E+000	1.886947236288688E+001	-3.0641082E-001	2.3205695E-003	7.8591242E-002	1.7876454E-003	1.000000000000000E+000	11	1.3942647E-001	3.2834502E-004	9.356681992484179E-006	-1.6379493E-004	2.3280317E-003	3.5517209E-004	2.3549690E-003	8.6743431E+000	2.294814306029950E-008
2.8188096E+004	4.2243484E+002	6.2964458E+001	4.2710153E+002	-8.4775972E+000	1.946447175115463E+001	-3.0638713E-001	2.3027000E-003	8.9672424E-002	1.9488912E-003	1.000000000000000E+000	11	1.2946646E-001	3.0312806E-004	9.391284759364984E-006	3.1736746E-004	2.3157808E-003	3.4517012E-004	2.3413636E-003	8.4775972E+000	3.460276688080471E-008
2.5116910E+004	4.2481476E+002	6.2409122E+001	4.2937451E+002	-8.3574848E+000	1.992449721301091E+001	-3.0639765E-001	2.2751552E-003	1.0153268E-001	2.1450107E-003	1.000000000000000E+000	11	1.3259766E-001	3.0881586E-004	9.587900127213087E-006	-5.6476361E-004	2.3042364E-003	3.3851314E-004	2.3289691E-003	8.3574848E+000	1.966153678481031E-007
2.2389027E+004	4.2701031E+002	6.2287273E+001	4.3152927E+002	-8.2991076E+000	2.038449139482691E+001	-3.0639905E-001	2.2150404E-003	1.1412627E-001	2.3777364E-003	1.000000000000000E+000	11	1.3522324E-001	3.1335821E-004	1.006577780263534E-005	-2.4398866E-004	2.2930729E-003	3.3448666E-004	2.3173399E-003	8.2991076E+000	4.778776754222541E-007
1.9948783E+004	4.2902707E+002	6.2599998E+001	4.3357004E+002	-8.3015327E+000	2.084448744336260E+001	-3.0640873E-001	2.3088432E-003	1.2744693E-001	2.6568042E-003	1.000000000000000E+000	11	1.3739851E-001	3.1690038E-004	1.051212710859464E-005	-9.6573232E-004	2.2822656E-003	3.3300888E-004	2.3064325E-003	8.3015327E+000	4.463493059593020E-007
1.7786895E+004	4.3095874E+002	6.3320877E+001	4.3558578E+002	-8.3586750E+000	2.130449050522293E+001	-3.0641133E-001	2.3010266E-003	1.4131007E-001	2.9862043E-003	1.000000000000000E+000	11	1.3919039E-001	3.1954760E-004	1.072119115058902E-005	-8.0534484E-004	2.2713721E-003	3.3373327E-004	2.2957590E-003	8.3586750E+000	2.090640419943749E-007
1.5847686E+004	4.3289661E+002	6.4605553E+001	4.3769092E+002	-8.4881830E+000	2.176348356701783E+001	-3.0640751E-001	2.2749703E-003	1.5544775E-001	3.3867962E-003	1.000000000000000E+000	11	1.4066866E-001	3.2138813E-004	1.081917884012930E-005	-1.6379493E-004	2.2596912E-003	3.3723668E-004	2.2847173E-003	8.4881830E+000	9.798768954028195E-008
1.4121879E+004	4.3499414E+002	6.6463707E+001	4.4004242E+002	-8.6871614E+000	2.235847596862004E+001	-3.0639282E-001	2.2597068E-003	1.6956767E-001	3.8683265E-003	1.000000000000000E+000	11	1.2941763E-001	2.9410262E-004	1.109788018716790E-005	-6.4495736E-004	2.2464374E-003	3.4323809E-004	2.2725081E-003	8.6871614E+000	2.787013470386030E-007
1.2590932E+004	4.3801068E+002	6.9196930E+001	4.4344287E+002	-8.9773932E+000	2.311947264472838E+001	-3.0635661E-001	1.8436422E-004	1.8267345E-001	4.4480916E-003	1.000000000000000E+000	12	1.2669277E-001	2.8570258E-004	1.140883863774393E-005	-1.6379493E-004	2.2274570E-003	3.5189369E-004	2.2550819E-003	8.9773932E+000	3.109584505760314E-007
1.1217711E+004	4.3995233E+002	7.2141953E+001	4.4582791E+002	-9.3123016E+000	2.357847578657675E+001	-3.0636862E-001	1.8626446E-004	1.9666542E-001	5.1495503E-003	1.000000000000000E+000	12	1.3134976E-001	2.9461985E-004	1.118109468915888E-005	-8.0534484E-004	2.2134574E-003	3.6295553E-004	2.2430180E-003	9.3123016E+000	-2.277439485850560E-007
1.0002229E+004	4.4199377E+002	7.5679626E+001	4.4842603E+002	-9.7161522E+000	2.403748476834153E+001	-3.0637544E-001	1.8553824E-004	2.1025401E-001	5.9885359E-003	1.000000000000000E+000	12	1.3536960E-001	3.0187721E-004	1.114126152097015E-005	-2.4398866E-004	2.1980344E-003	3.7635470E-004	2.2300221E-003	9.7161522E+000	-3.983316818873171E-008
8.9149297E+003	4.4387558E+002	7.9890274E+001	4.5100775E+002	-1.0203057E+001	2.451991969798109E+001	-3.0635780E-001	2.3173603E-004	2.2346438E-001	7.0117773E-003	1.000000000000000E+000	12	1.3874227E-001	3.0762723E-004	1.132944827143122E-005	3.1736746E-004	2.1821933E-003	3.9275878E-004	2.2172567E-003	1.0203057E+001	1.881867504610770E-007
7.9439976E+003	4.4578116E+002	8.4816277E+001	4.5377820E+002	-1.0772586E+001	2.519998949026922E+001	-3.0631837E-001	2.5416355E-004	2.3621191E-001	8.2522612E-003	1.000000000000000E+000	12	1.2924579E-001	2.8482149E-004	1.107647983221412E-005	-7.2515110E-004	2.1648831E-003	4.1190011E-004	2.2037197E-003	1.0772586E+001	-2.529684392171084E-007
7.0822334E+003	4.4781302E+002	9.0498833E+001	4.5686600E+002	-1.1425066E+001	2.577686069099582E+001	-3.0631313E-001	2.7031405E-004	2.4831726E-001	9.7435052E-003	1.000000000000000E+000	12	1.3135178E-001	2.8750615E-004	1.120232270407642E-005	-8.0534484E-004	2.1454531E-003	4.3357606E-004	2.1888255E-003	1.1425066E+001	1.258428718623099E-007
6.3077344E+003	4.4999460E+002	9.7027245E+001	4.6033621E+002	-1.2167757E+001	2.641155477447319E+001	-3.0630264E-001	2.8821614E-004	2.6004770E-001	1.1552877E-002	1.000000000000000E+000	12	1.3307349E-001	2.8907892E-004	1.112239415513694E-005	2.3717375E-004	2.1235233E-003	4.5787127E-004	2.1723253E-003	1.2167757E+001	-7.992854893948202E-008
5.6210552E+003	4.5211560E+002	1.0458630E+002	4.6405475E+002	-1.3024925E+001	2.711228862105054E+001	-3.0629811E-001	2.9743675E-004	2.7072445E-001	1.3751137E-002	1.000000000000000E+000	12	1.3440424E-001	2.8963014E-004	1.136743065143024E-005	-7.2515110E-004	2.0994768E-003	4.8566450E-004	2.1549182E-003	1.3024925E+001	2.450364962932992E-007
5.0116035E+003	4.5437875E+002	1.1303016E+002	4.6822629E+002	-1.3969227E+001	2.787270671057195E+001	-3.0630836E-001	2.7346227E-004	2.8096297E-001	1.6372921E-002	1.000000000000000E+000	12	1.3544483E-001	2.8927217E-004	1.163519627158126E-005	-4.0437613E-004	2.0725566E-003	5.1556423E-004	2.1357194E-003	1.3969227E+001	2.677656201510171E-007
4.4664292E+003	4.5672198E+002	1.2259650E+002	4.7288992E+002	-1.5025538E+001	2.863269917333673E+001	-3.0630124E-001	2.9339441E-004	2.9065755E-001	1.9535189E-002	1.000000000000000E+000	12	1.3623239E-001	2.8808479E-004	1.193278586049726E-005	-4.8456987E-004	2.0423578E-003	5.4822391E-004	2.1146571E-003	1.5025538E+001	2.975895889159995E-007
3.9812742E+003	4.5916861E+002	1.3336774E+002	4.7814514E+002	-1.6196194E+001	2.939269696943666E+001	-3.0629936E-001	3.0645219E-004	2.9974174E-001	2.3320042E-002	1.000000000000000E+000	12	1.3680443E-001	2.8611487E-004	1.187704999527907E-005	-4.8456987E-004	2.0084116E-003	5.8335281E-004	2.0914152E-003	1.6196194E+001	-5.573586521818989E-008
3.5465955E+003	4.6179745E+002	1.4553484E+002	4.8418723E+002	-1.7492174E+001	3.015293663219200E+001	-3.0631033E-001	2.7480337E-004	3.0834827E-001	2.7857928E-002	1.000000000000000E+000	12	1.3721049E-001	2.8338312E-004	1.197468540048996E-005	-1.6379493E-004	1.9698124E-003	6.2078371E-004	2.0653168E-003	1.7492174E+001	9.763540521089524E-008
3.1610112E+003	4.6461502E+002	1.5914554E+002	4.9111548E+002	-1.8907976E+001	3.091270088162855E+001	-3.0630726E-001	2.8452725E-004	3.1637317E-001	3.3221658E-002	1.000000000000000E+000	12	1.3747585E-001	2.7992571E-004	1.204526225932447E-005	-8.3601190E-005	1.9263092E-003	6.5982266E-004	2.0361810E-003	1.8907976E+001	7.057685883450483E-008
2.8172952E+003	4.6766772E+002	1.7438197E+002	4.9912140E+002	-2.0449268E+001	3.167292035772698E+001	-3.0631658E-001	2.7042537E-004	3.2395613E-001	3.9543670E-002	1.000000000000000E+000	12	1.3763160E-001	2.7574773E-004	1.190476653871317E-005	-8.0534484E-004	1.8772625E-003	6.9998577E-004	2.0035205E-003	2.0449268E+001	-1.404957206112955E-007
2.5108032E+003	4.7097574E+002	1.9144266E+002	5.0839792E+002	-2.2120804E+001	3.243267274049140E+001	-3.0630910E-001	3.1028915E-004	3.3110729E-001	4.6950329E-002	1.000000000000000E+000	12	1.3769364E-001	2.7083833E-004	1.176348830082376E-005	-6.4495736E-004	1.8221790E-003	7.4068096E-004	1.9669633E-003	2.2120804E+001	-1.412782378894112E-007
2.2378516E+003	4.7460110E+002	2.1046515E+002	5.1917413E+002	-2.3915224E+001	3.319292450993089E+001	-3.0630869E-001	2.7120707E-004	3.3791593E-001	5.5531953E-002	1.000000000000000E+000	12	1.3768660E-001	2.6520313E-004	1.194313068106405E-005	-3.4074546E-006	1.7607700E-003	7.8082568E-004	1.9261360E-003	2.3915224E+001	1.796423802402888E-007
1.9956389E+003	4.7846796E+002	2.3157358E+002	5.3156177E+002	-2.5826506E+001	3.395269179935713E+001	-3.0630234E-001	2.9061706E-004	3.4438890E-001	6.5361157E-002	1.000000000000000E+000	12	1.3761221E-001	2.5888282E-004	1.185839809608620E-005	-7.2515110E-004	1.6933448E-003	8.1956148E-004	1.8812489E-003	2.5826506E+001	-8.473258497785194E-008
1.7782927E+003	4.8288574E+002	2.5525414E+002	5.4619897E+002	-2.7860998E+001	3.471296586212702E+001	-3.0631161E-001	2.7493126E-004	3.5062599E-001	7.6575160E-002	1.000000000000000E+000	12	1.3749368E-001	2.5172820E-004	1.213497526726698E-005	-6.4495736E-004	1.6186115E-003	8.5560052E-004	1.8308347E-003	2.7860998E+001	2.765771711807851E-007
1.5855076E+003	4.8772354E+002	2.8148547E+002	5.6312372E+002	-2.9991026E+001	3.547269053821947E+001	-3.0630052E-001	2.8893934E-004	3.5661191E-001	8.9104608E-002	1.000000000000000E+000	12	1.3733876E-001	2.4388736E-004	1.217853469828616E-005	-3.4074546E-006	1.5380345E-003	8.8766351E-004	1.7758087E-003	2.9991026E+001	4.355943101917492E-008
1.4118373E+003	4.9316040E+002	3.1108255E+002	5.8307764E+002	-3.2243481E+001	3.623419558766182E+001	-3.0631328E-001	3.0654279E-004	3.6237633E-001	1.0314742E-001	1.000000000000000E+000	12	1.3714948E-001	2.3521650E-004	1.241613350776606E-005	-2.4398866E-004	1.4505590E-003	9.1500388E-004	1.7150375E-003	3.2243481E+001	2.375988094799029E-007
1.2587914E+003	4.9917615E+002	3.4352011E+002	6.0595618E+002	-3.4534744E+001	3.699394645044231E+001	-3.0631253E-001	2.8459934E-004	3.6805627E-001	1.1828675E-001	1.000000000000000E+000	12	1.3694043E-001	2.2599066E-004	1.246190724673700E-005	-2.4398866E-004	1.3594755E-003	9.3555596E-004	1.6502844E-003	3.4534744E+001	4.577373897094188E-008
1.1217948E+003	5.0593158E+002	3.7970010E+002	6.3256537E+002	-3.6888119E+001	3.775242779313703E+001	-3.0631408E-001	2.6945429E-004	3.7365085E-001	1.3462837E-001	1.000000000000000E+000	12	1.3672060E-001	2.1613670E-004	1.256316848858518E-005	-1.6379493E-004	1.2643897E-003	9.4892073E-004	1.5808643E-003	3.6888119E+001	1.012612418481795E-007
1.0003201E+003	5.1346350E+002	4.1970593E+002	6.6317255E+002	-3.9262623E+001	3.851169081589615E+001	-3.0629522E-001	2.9551511E-004	3.7908450E-001	1.5183546E-001	1.000000000000000E+000	12	1.3649499E-001	2.0582124E-004	1.280478195525903E-005	-9.6573232E-004	1.1674990E-003	9.5431565E-004	1.5079032E-003	3.9262623E+001	2.416134666738493E-007
8.9142657E+002	5.2208038E+002	4.6430905E+002	6.9867792E+002	-4.1648102E+001	3.927043674522429E+001	-3.0629447E-001	2.8951647E-004	3.8452750E-001	1.6981953E-001	1.000000000000000E+000	12	1.3626871E-001	1.9503794E-004	1.300728449617037E-005	-8.3601190E-005	1.0695063E-003	9.5115899E-004	1.4312747E-003	4.1648102E+001	2.025025409113326E-007
7.9423773E+002	5.3184247E+002	5.1391376E+002	7.3957001E+002	-4.4017803E+001	4.002995152797666E+001	-3.0629879E-001	2.7899156E-004	3.8992348E-001	1.8827873E-001	1.000000000000000E+000	12	1.3604355E-001	1.8394952E-004	1.300617521368425E-005	-3.2418242E-004	9.7235409E-004	9.3957549E-004	1.3521371E-003	4.4017803E+001	-1.109282486116739E-009
7.0750946E+002	5.4286316E+002	5.6902161E+002	7.8643878E+002	-4.6347702E+001	4.079245943084243E+001	-3.0629221E-001	2.8169245E-004	3.9532942E-001	2.0696017E-001	1.000000000000000E+000	12	1.3583404E-001	1.7272042E-004	1.314496710266359E-005	-3.4074546E-006	8.7772915E-004	9.2002336E-004	1.2715547E-003	4.6347702E+001	1.387918889793383E-007
6.3100964E+002	5.5556036E+002	6.2953851E+002	8.3962256E+002	-4.8571976E+001	4.155041720016743E+001	-3.0629539E-001	2.6488974E-004	4.0064695E-001	2.2523622E-001	1.000000000000000E+000	12	1.3563189E-001	1.6153912E-004	1.325927743575211E-005	-5.6476361E-004	7.8806683E-004	8.9300546E-004	1.1910114E-003	4.8571976E+001	1.143103330885226E-007
5.6233929E+002	5.7015717E+002	6.9699371E+002	9.0048846E+002	-5.0716030E+001	4.230691435612971E+001	-3.0629992E-001	2.8619985E-004	4.0606245E-001	2.4327320E-001	1.000000000000000E+000	12	1.3545093E-001	1.5041939E-004	1.322046772617861E-005	-8.3601190E-005	7.0313428E-004	8.5955276E-004	1.1105083E-003	5.0716030E+001	-3.880970957349458E-008
5.0144415E+002	5.8648334E+002	7.7103210E+002	9.6873792E+002	-5.2741673E+001	4.306415532543906E+001	-3.0629706E-001	2.8210142E-004	4.1164714E-001	2.6076987E-001	1.000000000000000E+000	12	1.3528611E-001	1.3965192E-004	1.339458963837635E-005	-8.3601190E-005	6.2494684E-004	8.2159892E-004	1.0322710E-003	5.2741673E+001	1.741219121977344E-007
4.4685895E+002	6.0539392E+002	8.5358600E+002	1.0464755E+003	-5.4654362E+001	4.382090186804999E+001	-3.0629474E-001	2.7876638E-004	4.1725582E-001	2.7761242E-001	1.000000000000000E+000	12	1.3512921E-001	1.2912793E-004	1.332061215094336E-005	7.6786280E-005	5.5281521E-004	7.7945169E-004	9.5558859E-004	5.4654362E+001	-7.397748743298696E-008
3.9808920E+002	6.2732635E+002	9.4457880E+002	1.1339169E+003	-5.6410534E+001	4.458369750429847E+001	-3.0629459E-001	2.7558045E-004	4.2325446E-001	2.9370779E-001	1.000000000000000E+000	12	1.3500647E-001	1.1906206E-004	1.335583708000281E-005	-1.6379493E-004	4.8790031E-004	7.3464203E-004	8.8189886E-004	5.6410534E+001	3.522492905944499E-008
3.5465955E+002	6.5258380E+002	1.0452762E+003	1.2322614E+003	-5.8022766E+001	4.534394188705483E+001	-3.0628911E-001	2.7545006E-004	4.2931631E-001	3.0891138E-001	1.000000000000000E+000	12	1.3489953E-001	1.0947315E-004	1.337047008442475E-005	-3.2418242E-004	4.2976454E-004	6.8837556E-004	8.1151613E-004	5.8022766E+001	1.463300442194069E-008
3.1631586E+002	6.8130011E+002	1.1550878E+003	1.3410435E+003	-5.9466816E+001	4.610092861636076E+001	-3.0629587E-001	2.6187015E-004	4.3559629E-001	3.2316807E-001	1.000000000000000E+000	12	1.3479935E-001	1.0051826E-004	1.347465362222854E-005	-5.6476361E-004	3.7883731E-004	6.4228720E-004	7.4568798E-004	5.9466816E+001	1.041835378037933E-007
2.8189429E+002	7.1457904E+002	1.2768698E+003	1.4632223E+003	-6.0767162E+001	4.685639257219736E+001	-3.0629387E-001	2.6675055E-004	4.4216797E-001	3.3671296E-001	1.000000000000000E+000	12	1.3471717E-001	9.2068833E-005	1.352723416807976E-005	-3.2418242E-004	3.3375644E-004	5.9638394E-004	6.8342313E-004	6.0767162E+001	5.258054585121663E-008
2.5104436E+002	7.5428925E+002	1.4122767E+003	1.6010864E+003	-6.1893570E+001	4.761292482150020E+001	-3.0629846E-001	2.5870305E-004	4.4890025E-001	3.4926888E-001	1.000000000000000E+000	12	1.3465029E-001	8.4099323E-005	1.367774654726928E-005	-3.2418242E-004	2.9424450E-004	5.5092212E-004	6.2457589E-004	6.1893570E+001	1.505123791895242E-007
2.2392513E+002	7.9869684E+002	1.5588479E+003	1.7515488E+003	-6.2871052E+001	4.837571987108095E+001	-3.0629706E-001	2.5851664E-004	4.5594618E-001	3.6114082E-001	1.000000000000000E+000	12	1.3458811E-001	7.6839482E-005	1.380954268324892E-005	2.3717375E-004	2.6033793E-004	5.0811173E-004	5.7092326E-004	6.2871052E+001	1.317961359796336E-007
1.9955299E+002	8.5045166E+002	1.7218993E+003	1.9204701E+003	-6.3715084E+001	4.913619068046683E+001	-3.0629429E-001	2.9225173E-004	4.6318462E-001	3.7235272E-001	1.000000000000000E+000	12	1.3454705E-001	7.0059439E-005	1.380190227688586E-005	4.7775495E-004	2.3058685E-004	4.6686642E-004	5.2070583E-004	6.3715084E+001	-7.640406363052692E-009
1.7778128E+002	9.1008289E+002	1.8982004E+003	2.1050928E+003	-6.4384842E+001	4.990427205027663E+001	-3.0629101E-001	3.5409638E-004	4.7161981E-001	3.8347203E-001	1.000000000000000E+000	12	1.3450322E-001	6.3894200E-005	1.381148096330996E-005	-5.6476361E-004	2.0537067E-004	4.2835082E-004	4.7503845E-004	6.4384842E+001	9.578686424093153E-009
1.5842838E+002	9.7844818E+002	2.0920188E+003	2.3095244E+003	-6.4934258E+001	5.067072670007474E+001	-3.0630624E-001	2.7712519E-004	4.8019940E-001	3.9401037E-001	1.000000000000000E+000	12	1.3447089E-001	5.8224497E-005	1.391382355777903E-005	-9.6573232E-004	1.8343946E-004	3.9221160E-004	4.3298959E-004	6.4934258E+001	1.023425944690767E-007
1.4131134E+002	1.0554297E+003	2.3001169E+003	2.5307053E+003	-6.5351547E+001	5.142388518917141E+001	-3.0629498E-001	2.7135052E-004	4.8965839E-001	4.0449196E-001	1.000000000000000E+000	12	1.3443947E-001	5.3123320E-005	1.393371605599828E-005	3.1736746E-004	1.6479577E-004	3.5914246E-004	3.9514675E-004	6.5351547E+001	1.989249821924274E-008
1.2584569E+002	1.1481741E+003	2.5327676E+003	2.7808660E+003	-6.5613892E+001	5.242943145023310E+001	-3.0630249E-001	2.7978473E-005	4.9932861E-001	4.1420659E-001	1.000000000000000E+000	13	1.3529846E-001	4.8653354E-005	1.394936037105665E-005	-2.4398866E-004	1.4847303E-004	3.2751804E-004	3.5960021E-004	6.5613892E+001	1.564431505837776E-008
1.1218996E+002	1.2517294E+003	2.7818533E+003	3.0504973E+003	-6.5774048E+001	5.317483879234351E+001	-3.0630359E-001	2.8114437E-005	5.0995511E-001	4.2409101E-001	1.000000000000000E+000	13	1.3511194E-001	4.4291777E-005	1.394524035383890E-005	2.3717375E-004	1.3451450E-004	2.9894611E-004	3.2781539E-004	6.5774048E+001	-4.120017217752446E-009
1.0003201E+002	1.3703470E+003	3.0511184E+003	3.3447234E+003	-6.5813751E+001	5.393466578845255E+001	-3.0630159E-001	3.0304633E-005	5.2146131E-001	4.3393010E-001	1.000000000000000E+000	13	1.3496748E-001	4.0352359E-005	1.397658504982052E-005	-4.8456987E-004	1.2249267E-004	2.7273360E-004	2.9897838E-004	6.5813751E+001	3.134469598161552E-008
8.9115974E+001	1.5067821E+003	3.3448572E+003	3.6685776E+003	-6.5749519E+001	5.470073787815636E+001	-3.0629870E-001	2.9777453E-005	5.3393328E-001	4.4386071E-001	1.000000000000000E+000	13	1.3484651E-001	3.6757163E-005	1.398714197876029E-005	-3.2418242E-004	1.1195796E-004	2.4853190E-004	2.7258520E-004	6.5749519E+001	1.055692893977542E-008
7.9415527E+001	1.6623029E+003	3.6583560E+003	4.0183105E+003	-6.5563652E+001	5.546520679441164E+001	-3.0630255E-001	2.9239156E-005	5.4780847E-001	4.5406044E-001	1.000000000000000E+000	13	1.3474706E-001	3.3533262E-005	1.398479410461558E-005	7.6786280E-005	1.0294926E-004	2.2656820E-004	2.4886080E-004	6.5563652E+001	-2.347874144713655E-009
7.0838745E+001	1.8373663E+003	3.9918906E+003	4.3944404E+003	-6.5284584E+001	5.621636757676606E+001	-3.0630365E-001	2.6046926E-005	5.6282145E-001	4.6443051E-001	1.000000000000000E+000	13	1.3466813E-001	3.0645115E-005	1.398630241695577E-005	-7.2515110E-004	9.5145559E-005	2.0671476E-004	2.2756026E-004	6.5284584E+001	1.508312340194249E-009
6.3082302E+001	2.0374719E+003	4.3527271E+003	4.8059883E+003	-6.4916130E+001	5.699683673388790E+001	-3.0629504E-001	2.6020725E-005	5.7963043E-001	4.7545412E-001	1.000000000000000E+000	13	1.3459894E-001	2.8006507E-005	1.400626293776228E-005	-9.6573232E-004	8.8211717E-005	1.8844994E-004	2.0807375E-004	6.4916130E+001	1.996052080651063E-008
5.6241817E+001	2.2601250E+003	4.7350601E+003	5.2468047E+003	-6.4484062E+001	5.774033980918466E+001	-3.0630508E-001	2.5029776E-005	5.9763402E-001	4.8673940E-001	1.000000000000000E+000	13	1.3454731E-001	2.5643667E-005	1.399144867008009E-005	-8.8553858E-004	8.2099905E-005	1.7200288E-004	1.9059220E-004	6.4484062E+001	-1.481426768219147E-008
5.0144413E+001	2.5087070E+003	5.1386729E+003	5.7183535E+003	-6.3978306E+001	5.849719568513683E+001	-3.0629393E-001	2.8255434E-005	6.1765593E-001	4.9877712E-001	1.000000000000000E+000	13	1.3450497E-001	2.3521627E-005	1.398168999029117E-005	-4.8456987E-004	7.6719887E-005	1.5714804E-004	1.7487552E-004	6.3978306E+001	-9.758679788925668E-009
4.4671219E+001	2.7878000E+003	5.5672378E+003	6.2262319E+003	-6.3400536E+001	5.926123254807317E+001	-3.0629253E-001	3.0445657E-005	6.3995957E-001	5.1166004E-001	1.000000000000000E+000	13	1.3447458E-001	2.1598067E-005	1.399506767351088E-005	-6.4495736E-004	7.1913593E-005	1.4361148E-004	1.6061078E-004	6.3400536E+001	1.337768321971208E-008
3.9808922E+001	3.0951638E+003	6.0158779E+003	6.7654141E+003	-6.2774220E+001	6.002369562433159E+001	-3.0630478E-001	2.8709821E-005	6.6456997E-001	5.2547246E-001	1.000000000000000E+000	13	1.3444723E-001	1.9872728E-005	1.400017730741052E-005	-4.0437613E-004	6.7623070E-005	1.3143476E-004	1.4781061E-004	6.2774220E+001	5.109633899641174E-009
3.5465305E+001	3.4302058E+003	6.4908135E+003	7.3414556E+003	-6.2144852E+001	6.077311488657142E+001	-3.0630037E-001	2.7668691E-005	6.9138080E-001	5.4044461E-001	1.000000000000000E+000	13	1.3442323E-001	1.8310160E-005	1.401000362305806E-005	-8.3601190E-005	6.3643762E-005	1.2043002E-004	1.3621277E-004	6.2144852E+001	9.826315647538215E-009
3.1629551E+001	3.7923545E+003	6.9830659E+003	7.9463931E+003	-6.1494556E+001	6.149742678759503E+001	-3.0629566E-001	2.7316655E-005	7.2057796E-001	5.5645901E-001	1.000000000000000E+000	13	1.3440706E-001	1.6914222E-005	1.399755165931694E-005	-3.2418242E-004	6.0057722E-005	1.1058751E-004	1.2584326E-004	6.1494556E+001	-1.245196374111382E-008
2.8170074E+001	4.1887310E+003	7.5078726E+003	8.5973027E+003	-6.0842335E+001	6.230272751924349E+001	-3.0629894E-001	2.8962988E-005	7.5251514E-001	5.7388461E-001	1.000000000000000E+000	13	1.3438898E-001	1.5631529E-005	1.398384644367030E-005	-6.4495736E-004	5.6670629E-005	1.0157631E-004	1.1631555E-004	6.0842335E+001	-1.370521564664818E-008
2.5104435E+001	4.6114141E+003	8.0495757E+003	9.2768965E+003	-6.0192612E+001	6.305892395513365E+001	-3.0630499E-001	2.9298240E-005	7.8758365E-001	5.9297621E-001	1.000000000000000E+000	13	1.3437614E-001	1.4485032E-005	1.399145342246326E-005	7.6786280E-005	5.3583208E-005	9.3533585E-005	1.0779467E-004	6.0192612E+001	7.606978792965401E-009
2.2385387E+001	5.0530142E+003	8.6085332E+003	9.9819736E+003	-5.9588032E+001	6.374543073438690E+001	-3.0630121E-001	2.6936614E-005	8.2589793E-001	6.1425942E-001	1.000000000000000E+000	13	1.3436887E-001	1.3461152E-005	1.402286228170811E-005	7.6786280E-005	5.0712806E-005	8.6396532E-005	1.0018059E-004	5.9588032E+001	3.140885924484788E-008
1.9955299E+001	5.5216196E+003	9.1942891E+003	1.0724889E+004	-5.9013126E+001	6.450721693059313E+001	-3.0630064E-001	2.9182658E-005	8.6744863E-001	6.3752097E-001	1.000000000000000E+000	13	1.3436186E-001	1.2528043E-005	1.404433515870283E-005	-6.4495736E-004	4.8004385E-005	7.9934187E-005	9.3241062E-005	5.9013126E+001	2.147287699472161E-008
1.7796129E+001	6.0039663E+003	9.8055322E+003	1.1497655E+004	-5.8520699E+001	6.535152561069117E+001	-3.0630094E-001	2.4045066E-005	9.1206002E-001	6.6335684E-001	1.000000000000000E+000	13	1.3435945E-001	1.1685813E-005	1.405425066629171E-005	-7.2515110E-004	4.5417131E-005	7.4174161E-005	8.6974258E-005	5.8520699E+001	9.915507588882007E-009
1.5857576E+001	6.5057749E+003	1.0453426E+004	1.2312563E+004	-5.8103592E+001	6.607291241831263E+001	-3.0630809E-001	2.7396542E-005	9.6011817E-001	6.9206196E-001	1.000000000000000E+000	13	1.3434726E-001	1.0911396E-005	1.400441447991936E-005	-1.6379493E-004	4.2914304E-005	6.8954352E-005	8.1217855E-005	5.8103592E+001	-4.983618637235538E-008
1.4118974E+001	7.0301616E+003	1.1152673E+004	1.3183523E+004	-5.7774445E+001	6.687526176302345E+001	-3.0630454E-001	2.9538336E-005	1.0107367E+000	7.2332418E-001	1.000000000000000E+000	13	1.3434513E-001	1.0190382E-005	1.404480169124342E-005	-3.2418242E-004	4.0448493E-005	6.4167631E-005	7.5852258E-005	5.7774445E+001	4.038721132405951E-008
1.2600808E+001	7.5593696E+003	1.1899894E+004	1.4097927E+004	-5.7574375E+001	6.776586417871295E+001	-3.0629987E-001	2.6294880E-005	1.0613990E+000	7.5623071E-001	1.000000000000000E+000	13	1.3434327E-001	9.5292926E-006	1.407220461363314E-005	-1.6379493E-004	3.8034272E-005	5.9873215E-005	7.0932416E-005	5.7574375E+001	2.740292238972087E-008
1.1224856E+001	8.1102119E+003	1.2719816E+004	1.5085399E+004	-5.7478233E+001	6.844990754453465E+001	-3.0631182E-001	2.1991678E-005	1.1147013E+000	7.9251325E-001	1.000000000000000E+000	13	1.3433525E-001	8.9049845E-006	1.403400652550926E-005	-4.8456987E-004	3.5638433E-005	5.5894263E-005	6.6289263E-005	5.7478233E+001	-3.819808812387493E-008
1.0003201E+001	8.6696924E+003	1.3597990E+004	1.6126652E+004	-5.7479572E+001	6.921070408735250E+001	-3.0630648E-001	3.1333704E-005	1.1700554E+000	8.3189291E-001	1.000000000000000E+000	13	1.3433906E-001	8.3302511E-006	1.403232089008401E-005	-3.2418242E-004	3.3336139E-005	5.2286108E-005	6.2009152E-005	5.7479572E+001	-1.685635425247814E-009
8.9183798E+000	9.2291660E+003	1.4558778E+004	1.7237619E+004	-5.7628387E+001	7.005403671404929E+001	-3.0629513E-001	2.3109114E-005	1.2257707E+000	8.7438875E-001	1.000000000000000E+000	13	1.3434023E-001	7.7934328E-006	1.407365865724710E-005	7.6786280E-005	3.1060459E-005	4.8997095E-005	5.8012651E-005	5.7628387E+001	4.133776716308711E-008
7.9395342E+000	9.8041563E+003	1.5618159E+004	1.8440400E+004	-5.7881832E+001	7.099271369199414E+001	-3.0629465E-001	2.5019994E-005	1.2834982E+000	9.2069179E-001	1.000000000000000E+000	13	1.3433605E-001	7.2848775E-006	1.405018362819217E-005	-3.4074546E-006	2.8831650E-005	4.5929228E-005	5.4228756E-005	5.7881832E+001	-2.347502905493158E-008
7.0765405E+000	1.0380680E+004	1.6772537E+004	1.9725021E+004	-5.8246246E+001	7.155101865183678E+001	-3.0630609E-001	2.4133447E-005	1.3409123E+000	9.6953374E-001	1.000000000000000E+000	13	1.3433136E-001	6.8102013E-006	1.406323830501980E-005	-8.0534484E-004	2.6680307E-005	4.3108583E-005	5.0697028E-005	5.8246246E+001	1.305467682762684E-008
6.3105822E+000	1.1017750E+004	1.8042699E+004	2.1140715E+004	-5.8589733E+001	7.217119414792978E+001	-3.0631506E-001	4.1949599E-005	1.3978134E+000	1.0181526E+000	1.000000000000000E+000	13	1.3432500E-001	6.3538532E-006	1.409997328413566E-005	-3.2418242E-004	2.4652079E-005	4.0370320E-005	4.7302092E-005	5.8589733E+001	3.673497911586219E-008
5.6205034E+000	1.1594766E+004	1.9490750E+004	2.2678799E+004	-5.9252197E+001	7.285767468724225E+001	-3.0631396E-001	3.4313543E-005	1.4528353E+000	1.0730832E+000	1.000000000000000E+000	13	1.3433550E-001	5.9233957E-006	1.413475314894708E-005	4.7775495E-004	2.2543527E-005	3.7895570E-005	4.4094046E-005	5.9252197E+001	3.477986481142440E-008
5.0144415E+000	1.2239237E+004	2.1080789E+004	2.4376189E+004	-5.9861095E+001	7.361519050985225E+001	-3.0628821E-001	2.0497888E-005	1.5056038E+000	1.1260374E+000	1.000000000000000E+000	13	1.3433775E-001	5.5110236E-006	1.412083001421393E-005	-5.6476361E-004	2.0597890E-005	3.5477682E-005	4.1023639E-005	5.9861095E+001	-1.392313473315302E-008
4.4693937E+000	1.2899460E+004	2.2784822E+004	2.6182898E+004	-6.0483948E+001	7.445649769649026E+001	-3.0629385E-001	2.0804249E-005	1.5628808E+000	1.1835366E+000	1.000000000000000E+000	13	1.3432762E-001	5.1303573E-006	1.405767529092057E-005	-3.2418242E-004	1.8816381E-005	3.3236112E-005	3.8192869E-005	6.0483948E+001	-6.315472329336209E-008
3.9778514E+000	1.3600458E+004	2.4786174E+004	2.8272369E+004	-6.1245918E+001	7.569420026193256E+001	-3.0628970E-001	-2.1438084E-006	1.6142176E+000	1.2406710E+000	1.000000000000000E+000	14	1.3435492E-001	4.7521635E-006	1.408787936471696E-005	-4.8456987E-004	1.7014889E-005	3.1008811E-005	3.5370223E-005	6.1245918E+001	3.020407379638800E-008
3.5511365E+000	1.4344732E+004	2.6967268E+004	3.0545129E+004	-6.1990093E+001	7.673538452471257E+001	-3.0630338E-001	1.1643579E-005	1.6619418E+000	1.2954056E+000	1.000000000000000E+000	14	1.3435283E-001	4.3985028E-006	1.414381316464263E-005	-3.4074546E-006	1.5374766E-005	2.8903673E-005	3.2738444E-005	6.1990093E+001	5.593379992567155E-008
3.1603966E+000	1.5109391E+004	2.9396104E+004	3.3051848E+004	-6.2797153E+001	7.789724084656336E+001	-3.0629417E-001	6.5213868E-007	1.7131240E+000	1.3551171E+000	1.000000000000000E+000	14	1.3434871E-001	4.0647865E-006	1.419259346667564E-005	-4.0437613E-004	1.3831061E-005	2.6909045E-005	3.0255494E-005	6.2797153E+001	4.878030203301160E-008
2.8183618E+000	1.5963667E+004	3.2060564E+004	3.5815059E+004	-6.3530266E+001	7.919262933480786E+001	-3.0628788E-001	3.3319511E-006	1.7613766E+000	1.4114425E+000	1.000000000000000E+000	14	1.3434543E-001	3.7510879E-006	1.409075395884520E-005	-4.8456987E-004	1.2445184E-005	2.4994233E-005	2.7921216E-005	6.3530266E+001	-1.018395078304411E-007
2.5136740E+000	1.6889779E+004	3.5021297E+004	3.8881305E+004	-6.4253304E+001	8.063672548339673E+001	-3.0628860E-001	4.7024796E-006	1.8079189E+000	1.4667691E+000	1.000000000000000E+000	14	1.3434350E-001	3.4552211E-006	1.416134676789418E-005	-1.6379493E-004	1.1172293E-005	2.3165974E-005	2.5719302E-005	6.4253304E+001	7.059280904897827E-008
2.2398219E+000	1.7843643E+004	3.8326742E+004	4.2276883E+004	-6.5034897E+001	8.225134313336457E+001	-3.0628905E-001	3.2850237E-006	1.8539786E+000	1.5237111E+000	1.000000000000000E+000	14	1.3433975E-001	3.1776171E-006	1.417780770976010E-005	-8.0534484E-004	9.9833796E-006	2.1443517E-005	2.3653589E-005	6.5034897E+001	1.646094186591866E-008
1.9970604E+000	1.8914615E+004	4.1925617E+004	4.5994781E+004	-6.5717628E+001	8.405361727236050E+001	-3.0628693E-001	3.7836035E-006	1.9008570E+000	1.5793968E+000	1.000000000000000E+000	14	1.3434054E-001	2.9207779E-006	1.409179238734386E-005	-4.0437613E-004	8.9408823E-006	1.9818113E-005	2.1741596E-005	6.5717628E+001	-8.601532241623876E-008
1.7796129E+000	2.0085820E+004	4.5941496E+004	5.0140414E+004	-6.6384842E+001	8.607292134157615E+001	-3.0628458E-001	4.9474525E-006	1.9466572E+000	1.6342703E+000	1.000000000000000E+000	14	1.3433835E-001	2.6792429E-006	1.421945409452218E-005	-2.4398866E-004	7.9893925E-006	1.8273817E-005	1.9943991E-005	6.6384842E+001	1.276617071783281E-007
1.5846854E+000	2.1396488E+004	5.0401949E+004	5.4755512E+004	-6.6997948E+001	8.833208126222598E+001	-3.0628401E-001	2.4732706E-006	1.9926441E+000	1.6883743E+000	1.000000000000000E+000	14	1.3433766E-001	2.4534090E-006	1.410374646947427E-005	-4.8456987E-004	7.1365253E-006	1.6810925E-005	1.8263001E-005	6.6997948E+001	-1.157076250479163E-007
1.4122382E+000	2.2805939E+004	5.5317320E+004	5.9834078E+004	-6.7594879E+001	9.086109082234907E+001	-3.0628175E-001	4.8324882E-006	2.0372813E+000	1.7413099E+000	1.000000000000000E+000	14	1.3433652E-001	2.2451507E-006	1.418437916665157E-005	-3.4074546E-006	6.3701659E-006	1.5451262E-005	1.6712884E-005	6.7594879E+001	8.063269717730606E-008
1.2596743E+000	2.4340947E+004	6.0646309E+004	6.5348730E+004	-6.8131493E+001	9.369005279670819E+001	-3.0627859E-001	4.6299879E-006	2.0833271E+000	1.7942870E+000	1.000000000000000E+000	14	1.3433340E-001	2.0556390E-006	1.416370106124418E-005	-5.6476361E-004	5.6998465E-006	1.4201364E-005	1.5302516E-005	6.8131493E+001	-2.067810540739167E-008
1.1224856E+000	2.6064502E+004	6.6616398E+004	7.1533930E+004	-6.8631454E+001	9.685810798718012E+001	-3.0627730E-001	3.9170845E-006	2.1284242E+000	1.8458496E+000	1.000000000000000E+000	14	1.3433224E-001	1.8778815E-006	1.413630257258534E-005	7.6786280E-005	5.0936051E-006	1.3018382E-005	1.3979380E-005	6.8631454E+001	-2.739848865884548E-008
1.0000638E+000	2.7988057E+004	7.3167688E+004	7.8338000E+004	-6.9067177E+001	1.004072067690722E+002	-3.0628172E-001	3.9374750E-006	2.1750693E+000	1.8974346E+000	1.000000000000000E+000	14	1.3433151E-001	1.7147681E-006	1.421987211858118E-005	-6.4495736E-004	4.5606616E-006	1.1922693E-005	1.2765197E-005	6.9067177E+001	8.356954599584254E-008