EC-Lab ASCII FILE
Nb header lines : 60                          

Potentio Electrochemical Impedance Spectroscopy

Run on channel : 3 (SN 20921)
User : 
CE vs. WE compliance from -10 V to 10 V
Electrode connection : standard
Ewe ctrl range : min = -10.00 V, max = 10.00 V
Acquisition started on : 02/20/2020 14:48:52
Technique started on : 02/20/2020 14:48:53
Saved on :
	File : DE_65_11_60.mpr
	Directory : P:\Chemistry\Data\VMP3\Kyler\DOE\DE_65\60C\
	Host : 10.0.4.64
Device : VMP3 (SN 1432)
Address : USB
EC-Lab for windows v11.33 (software)
Internet server v11.32 (firmware)
Command interpretor v11.33 (firmware)
Electrode material : 
Initial state : 
Electrolyte : 
Comments : 
Electrode surface area : 0.001 cm²
Characteristic mass : 0.001 g
Equivalent Weight : 0.000 g/eq.
Density : 0.000 g/cm3
Record Analogic IN 1
Cycle Definition : Charge/Discharge alternance
Mode                Single sine         
E (V)               0.0000              
vs.                 Eoc                 
tE (h:m:s)          0:00:0.0000         
record              0                   
dI                  1.000               
unit dI             mA                  
dt (s)              0.000               
fi                  1.000               
unit fi             MHz                 
ff                  1.000               
unit ff             Hz                  
Nd                  20                  
Points              per decade          
spacing             Logarithmic         
Va (mV)             128.0               
pw                  0.50                
Na                  3                   
corr                0                   
E range min (V)     -10.000             
E range max (V)     10.000              
I Range             Auto                
Bandwidth           5                   
nc cycles           0                   
goto Ns'            0                   
nr cycles           0                   
inc. cycle          1                   

freq/Hz	Re(Z)/Ohm	-Im(Z)/Ohm	|Z|/Ohm	Phase(Z)/deg	time/s	<Ewe>/V	<I>/mA	Cs/µF	Cp/µF	cycle number	I Range	|Ewe|/V	|I|/A	(Q-Qo)/mA.h	Analog IN 1/V	Re(Y)/Ohm-1	Im(Y)/Ohm-1	|Y|/Ohm-1	Phase(Y)/deg	dq/mA.h	
1.0000186E+006	1.0105401E+002	4.9804787E+001	1.1266068E+002	-2.6236526E+001	1.949479399219854E+000	-2.7052916E-003	-5.0608530E-003	3.1955161E-003	6.2450854E-004	1.000000000000000E+000	11	3.7379097E-003	3.3178476E-005	-1.476065692903527E-006	-2.3782176E-004	7.9617547E-003	3.9239754E-003	8.8762110E-003	2.6236526E+001	-1.476065692903527E-006
8.9124669E+005	1.0461258E+002	4.7345406E+001	1.1482761E+002	-2.4350485E+001	2.544491480832221E+000	-2.2704639E-003	-4.0838094E-003	3.7717628E-003	6.4122054E-004	1.000000000000000E+000	11	5.3497679E-003	4.6589561E-005	-2.194334170293183E-006	-3.1798857E-004	7.9339836E-003	3.5907503E-003	8.7087071E-003	2.4350485E+001	-7.182684773896553E-007
7.9433269E+005	1.0886773E+002	4.5420128E+001	1.1796258E+002	-2.2646128E+001	3.140489135781536E+000	-1.9260311E-003	-3.3755358E-003	4.4113277E-003	6.5399968E-004	1.000000000000000E+000	11	7.5468509E-003	6.3976651E-005	-2.697074128575575E-006	-1.5765498E-004	7.8236721E-003	3.2640730E-003	8.4772650E-003	2.2646128E+001	-5.027399582823921E-007
7.0794981E+005	1.1341902E+002	4.4131954E+001	1.2170252E+002	-2.1261280E+001	3.735492924082791E+000	-1.6218193E-003	-2.8199137E-003	5.0940653E-003	6.6984090E-004	1.000000000000000E+000	11	1.0388254E-002	8.5357759E-005	-3.160501095983313E-006	-1.5765498E-004	7.6574953E-003	2.9795726E-003	8.2167564E-003	2.1261280E+001	-4.634269674077381E-007
6.3095681E+005	1.1771169E+002	4.2918808E+001	1.2529192E+002	-2.0032339E+001	4.331495672377059E+000	-1.3548279E-003	-2.2760343E-003	5.8772322E-003	6.8963930E-004	1.000000000000000E+000	11	1.3900835E-002	1.1094758E-004	-3.621358956977727E-006	-2.3782176E-004	7.4984841E-003	2.7340190E-003	7.9813609E-003	2.0032339E+001	-4.608578609944139E-007
5.6234225E+005	1.2179359E+002	4.1950016E+001	1.2881569E+002	-1.9005518E+001	4.927474660653388E+000	-1.1505909E-003	-1.9228297E-003	6.7466362E-003	7.1550725E-004	1.000000000000000E+000	11	1.8082757E-002	1.4037697E-004	-3.929422188411182E-006	-7.1882247E-004	7.3398454E-003	2.5281021E-003	7.7630295E-003	1.9005518E+001	-3.080632314334558E-007
5.0120619E+005	1.2564700E+002	4.0861340E+001	1.3212425E+002	-1.8014912E+001	5.524479142361088E+000	-9.8543835E-004	-1.5966495E-003	7.7712545E-003	7.4327795E-004	1.000000000000000E+000	11	2.2964686E-002	1.7381128E-004	-4.049490708998443E-006	-3.9815533E-004	7.1975891E-003	2.3407096E-003	7.5686332E-003	1.8014912E+001	-1.200685205872607E-007
4.4668572E+005	1.2920863E+002	3.9876846E+001	1.3522217E+002	-1.7151466E+001	6.119481197296409E+000	-8.6363807E-004	-1.4417603E-003	8.9350557E-003	7.7703944E-004	1.000000000000000E+000	11	2.8559834E-002	2.1120675E-004	-4.182000005782659E-006	2.4317895E-004	7.0663597E-003	2.1808462E-003	7.3952372E-003	1.7151466E+001	-1.325092967842160E-007
3.9810347E+005	1.3252856E+002	3.8740978E+001	1.3807492E+002	-1.6294788E+001	6.715495998942060E+000	-8.0783514E-004	-1.2261096E-003	1.0319380E-002	8.1239111E-004	1.000000000000000E+000	11	3.4923602E-002	2.5293225E-004	-4.364568630204303E-006	-4.7832212E-004	6.9515216E-003	2.0320809E-003	7.2424449E-003	1.6294788E+001	-1.825686244216440E-007
3.5480997E+005	1.3559503E+002	3.7628529E+001	1.4071928E+002	-1.5509691E+001	7.311479467229219E+000	-8.0138614E-004	-1.3261983E-003	1.1920846E-002	8.5238210E-004	1.000000000000000E+000	11	4.2097878E-002	2.9916211E-004	-4.863561852354097E-006	-2.3782176E-004	6.8475707E-003	1.9002467E-003	7.1063465E-003	1.5509691E+001	-4.989932221497944E-007
3.1622997E+005	1.3843173E+002	3.6460072E+001	1.4315265E+002	-1.4755433E+001	7.907492322236067E+000	-8.0051005E-004	-1.2425071E-003	1.3803829E-002	8.9543866E-004	1.000000000000000E+000	11	5.0194278E-002	3.5063465E-004	-5.777422257636014E-006	-3.9815533E-004	6.7551793E-003	1.7791752E-003	6.9855503E-003	1.4755433E+001	-9.138604052819164E-007
2.8183453E+005	1.4110550E+002	3.5305847E+001	1.4545537E+002	-1.4047506E+001	8.502475283836247E+000	-8.1532728E-004	-1.3233980E-003	1.5994817E-002	9.4235176E-004	1.000000000000000E+000	11	5.9296582E-002	4.0766169E-004	-5.658830951568638E-006	2.6785929E-006	6.6693644E-003	1.6687341E-003	6.8749613E-003	1.4047506E+001	1.185913060673760E-007
2.5118764E+005	1.4357047E+002	3.4189304E+001	1.4758519E+002	-1.3394711E+001	9.098474938800791E+000	-8.0542982E-004	-1.3192962E-003	1.8532397E-002	9.9454983E-004	1.000000000000000E+000	11	6.9457144E-002	4.7062407E-004	-5.303026582124100E-006	-2.3782176E-004	6.5914285E-003	1.5696569E-003	6.7757475E-003	1.3394711E+001	3.558043694445383E-007
2.2387173E+005	1.4586621E+002	3.3080303E+001	1.4957025E+002	-1.2777703E+001	9.693478060391499E+000	-7.9409749E-004	-1.2674798E-003	2.1490740E-002	1.0512352E-003	1.000000000000000E+000	11	8.0697246E-002	5.3952739E-004	-5.301397977096106E-006	3.2334571E-004	6.5202503E-003	1.4786965E-003	6.6858213E-003	1.2777703E+001	1.628605027993186E-009
1.9954350E+005	1.4799701E+002	3.2069717E+001	1.5143178E+002	-1.2226489E+001	1.029048747543129E+001	-8.0395688E-004	-1.2486539E-003	2.4870668E-002	1.1154334E-003	1.000000000000000E+000	11	9.2985690E-002	6.1404344E-004	-5.739373829288929E-006	-2.3782176E-004	6.4538503E-003	1.3984954E-003	6.6036335E-003	1.2226489E+001	-4.379758521928228E-007
1.7783180E+005	1.5002649E+002	3.1098152E+001	1.5321567E+002	-1.1710679E+001	1.088647726373165E+001	-7.7916798E-004	-1.2514440E-003	2.8779028E-002	1.1856020E-003	1.000000000000000E+000	11	1.0632653E-001	6.9396640E-004	-5.650323627649010E-006	-1.5765498E-004	6.3908934E-003	1.3247327E-003	6.5267477E-003	1.1710679E+001	8.905020163991964E-008
1.5848613E+005	1.5194800E+002	3.0213392E+001	1.5492270E+002	-1.1246030E+001	1.134547365884646E+001	-7.6382863E-004	-1.1962708E-003	3.3237580E-002	1.2641490E-003	1.000000000000000E+000	11	1.2066966E-001	7.7890232E-004	-6.403387682695514E-006	8.2845378E-005	6.3308915E-003	1.2588366E-003	6.4548319E-003	1.1246030E+001	-7.530640550465048E-007
1.4125594E+005	1.5377484E+002	2.9399189E+001	1.5655994E+002	-1.0823392E+001	1.180449181396398E+001	-7.6024910E-004	-1.1785617E-003	3.8324639E-002	1.3514111E-003	1.000000000000000E+000	11	1.3606866E-001	8.6911541E-004	-6.882990007452463E-006	-5.5848894E-004	6.2737036E-003	1.1994278E-003	6.3873301E-003	1.0823392E+001	-4.796023247569484E-007
1.2590930E+005	1.5554164E+002	2.8678255E+001	1.5816335E+002	-1.0446684E+001	1.240149186903727E+001	-6.7956495E-004	-1.0096945E-003	4.4076752E-002	1.4491167E-003	1.000000000000000E+000	11	1.2997589E-001	8.2178257E-004	-7.632122153719037E-006	-5.5848894E-004	6.2177749E-003	1.1464128E-003	6.3225776E-003	1.0446684E+001	-7.491321462665745E-007
1.1220494E+005	1.5722743E+002	2.8051714E+001	1.5971025E+002	-1.0115979E+001	1.299748469729093E+001	-6.5568945E-004	-9.7596005E-004	5.0564852E-002	1.5599187E-003	1.000000000000000E+000	11	1.2981024E-001	8.1278593E-004	-7.339509686612372E-006	-7.7488192E-005	6.1640018E-003	1.0997496E-003	6.2613389E-003	1.0115979E+001	2.926124671066651E-007
1.0000371E+005	1.5886256E+002	2.7507347E+001	1.6122646E+002	-9.8234682E+000	1.359348459230387E+001	-6.1297091E-004	-8.8071515E-004	5.7856917E-002	1.6841474E-003	1.000000000000000E+000	11	1.2969846E-001	8.0444897E-004	-7.581242012990616E-006	-2.3782176E-004	6.1115162E-003	1.0582203E-003	6.2024561E-003	9.8234682E+000	-2.417323263782437E-007
8.9129305E+004	1.6045457E+002	2.7043770E+001	1.6271765E+002	-9.5669861E+000	1.418849267388578E+001	-5.8436132E-004	-8.2610326E-004	6.6028647E-002	1.8238852E-003	1.000000000000000E+000	11	1.2961623E-001	7.9657143E-004	-5.780461550068139E-006	-7.7488192E-005	6.0601411E-003	1.0214048E-003	6.1456147E-003	9.5669861E+000	1.800780462922477E-006
7.9433273E+004	1.6197511E+002	2.6687330E+001	1.6415892E+002	-9.3561049E+000	1.478448542222031E+001	-5.6298339E-004	-7.8099774E-004	7.5077973E-002	1.9842384E-003	1.000000000000000E+000	11	1.2946910E-001	7.8868144E-004	-5.232302855498549E-006	-3.1798857E-004	6.0106209E-003	9.9032139E-004	6.0916580E-003	9.3561049E+000	5.481586945695903E-007
7.0794977E+004	1.6348247E+002	2.6413929E+001	1.6560257E+002	-9.1779871E+000	1.537948689048062E+001	-5.3871650E-004	-8.0112851E-004	8.5110798E-002	2.1652924E-003	1.000000000000000E+000	11	1.2948461E-001	7.8189978E-004	-5.005820407117021E-006	-2.3782176E-004	5.9612459E-003	9.6316088E-004	6.0385535E-003	9.1779871E+000	2.264824483815275E-007
6.3093828E+004	1.6495972E+002	2.6228909E+001	1.6703192E+002	-9.0345087E+000	1.597549201207585E+001	-5.1690987E-004	-7.1613566E-004	9.6172966E-002	2.3714530E-003	1.000000000000000E+000	11	1.2930726E-001	7.7414699E-004	-5.255274374167887E-006	-7.7488192E-005	5.9126061E-003	9.4011560E-004	5.9868796E-003	9.0345087E+000	-2.494539670508655E-007
5.6237012E+004	1.6641624E+002	2.6143625E+001	1.6845728E+002	-8.9280710E+000	1.643548518061289E+001	-5.2309723E-004	-7.9851865E-004	1.0825104E-001	2.6072590E-003	1.000000000000000E+000	11	1.4046127E-001	8.3380943E-004	-4.639234069567061E-006	-3.1798857E-004	5.8642994E-003	9.2126860E-004	5.9362231E-003	8.9280710E+000	6.160403046008261E-007
5.0122477E+004	1.6789421E+002	2.6168474E+001	1.6992133E+002	-8.8590059E+000	1.703049262220156E+001	-4.9829035E-004	-7.1110361E-004	1.2134146E-001	2.8778638E-003	1.000000000000000E+000	11	1.3040963E-001	7.6747063E-004	-3.323956286678973E-006	-4.7832212E-004	5.8148694E-003	9.0632227E-004	5.8850767E-003	8.8590059E+000	1.315277782888087E-006
4.4666715E+004	1.6933289E+002	2.6259485E+001	1.7135690E+002	-8.8149910E+000	1.749047813742072E+001	-5.0244620E-004	-7.1911706E-004	1.3569064E-001	3.1865381E-003	1.000000000000000E+000	11	1.3988559E-001	8.1634056E-004	-3.948395693211043E-006	-4.7832212E-004	5.7668425E-003	8.9429948E-004	5.8357730E-003	8.8149910E+000	-6.244394065320696E-007
3.9814063E+004	1.7081038E+002	2.6489893E+001	1.7285225E+002	-8.8154116E+000	1.808548912566039E+001	-4.8039784E-004	-7.0252927E-004	1.5090494E-001	3.5441639E-003	1.000000000000000E+000	11	1.3009241E-001	7.5262203E-004	-4.272661360710320E-006	-3.1798857E-004	5.7169474E-003	8.8660489E-004	5.7852878E-003	8.8154116E+000	-3.242656674992765E-007
3.5480996E+004	1.7230124E+002	2.6794346E+001	1.7437218E+002	-8.8391943E+000	1.854448882743600E+001	-4.8336087E-004	-6.6506531E-004	1.6740991E-001	3.9528753E-003	1.000000000000000E+000	11	1.3762113E-001	7.8923791E-004	-4.370298567757143E-006	-4.7832212E-004	5.6667500E-003	8.8122900E-004	5.7348600E-003	8.8391943E+000	-9.763720704682366E-008
3.1621143E+004	1.7383157E+002	2.7205435E+001	1.7594759E+002	-8.8948965E+000	1.914048968240968E+001	-4.7346437E-004	-6.8389252E-004	1.8500645E-001	4.4231494E-003	1.000000000000000E+000	11	1.2963606E-001	7.3678797E-004	-2.809970872407575E-006	8.2845378E-005	5.6151585E-003	8.7879796E-004	5.6835106E-003	8.8948965E+000	1.560327695349568E-006
2.8188096E+004	1.7538232E+002	2.7708275E+001	1.7755762E+002	-8.9778309E+000	1.960048343762173E+001	-4.7501104E-004	-6.7270827E-004	2.0377219E-001	4.9623256E-003	1.000000000000000E+000	11	1.3524416E-001	7.6169171E-004	-2.197410773284193E-006	-4.7832212E-004	5.5629760E-003	8.7888254E-004	5.6319744E-003	8.9778309E+000	6.125600991233819E-007
2.5116910E+004	1.7699519E+002	2.8298567E+001	1.7924315E+002	-9.0837545E+000	2.006049585944857E+001	-4.7040719E-004	-6.3412555E-004	2.2391824E-001	5.5812723E-003	1.000000000000000E+000	11	1.4021808E-001	7.8227860E-004	-2.732787599087412E-006	-3.1798857E-004	5.5090454E-003	8.8080409E-004	5.5790138E-003	9.0837545E+000	-5.353768258032181E-007
2.2389027E+004	1.7867821E+002	2.9007401E+001	1.8101749E+002	-9.2211981E+000	2.065647767446353E+001	-4.6466725E-004	-6.3375477E-004	2.4506207E-001	6.2929266E-003	1.000000000000000E+000	11	1.2965241E-001	7.1624247E-004	-2.299870709111322E-006	-7.1882247E-004	5.4529374E-003	8.8525366E-004	5.5243280E-003	9.2211981E+000	4.329168899760893E-007
1.9948783E+004	1.8043193E+002	2.9789003E+001	1.8287445E+002	-9.3748674E+000	2.111649001631304E+001	-4.5568342E-004	-5.9573026E-004	2.6782292E-001	7.1064653E-003	1.000000000000000E+000	11	1.3293701E-001	7.2693051E-004	-1.946294776337405E-006	-3.9815533E-004	5.3951973E-003	8.9073787E-004	5.4682326E-003	9.3748674E+000	3.535759327739169E-007
1.7786895E+004	1.8221806E+002	3.0632145E+001	1.8477487E+002	-9.5426016E+000	2.157549238475622E+001	-4.6136783E-004	-6.1213289E-004	2.9210743E-001	8.0280779E-003	1.000000000000000E+000	11	1.3565074E-001	7.3414063E-004	-1.292583192458147E-006	-2.3782176E-004	5.3371037E-003	8.9720479E-004	5.4119914E-003	9.5426016E+000	6.537115838792587E-007
1.5847686E+004	1.8413860E+002	3.1579729E+001	1.8682693E+002	-9.7315416E+000	2.203547379325028E+001	-4.6144234E-004	-6.0206861E-004	3.1801376E-001	9.0862298E-003	1.000000000000000E+000	11	1.3789968E-001	7.3811458E-004	-7.782127142082674E-007	-2.3782176E-004	5.2755275E-003	9.0475171E-004	5.3525474E-003	9.7315416E+000	5.143704782498793E-007
1.4121879E+004	1.8613037E+002	3.2596500E+001	1.8896309E+002	-9.9333200E+000	2.249449629508308E+001	-4.4938349E-004	-5.6590914E-004	3.4574562E-001	1.0288325E-002	1.000000000000000E+000	11	1.3971350E-001	7.3936925E-004	-4.636087108863446E-007	8.2845378E-005	5.2127070E-003	9.1288704E-004	5.2920389E-003	9.9333200E+000	3.146040033219227E-007
1.2590932E+004	1.8824094E+002	3.3692410E+001	1.9123239E+002	-1.0147665E+001	2.309149488343974E+001	-4.4491078E-004	-5.9573236E-004	3.7517181E-001	1.1645856E-002	1.000000000000000E+000	11	1.2938097E-001	6.7656412E-004	-8.794352974546200E-007	-1.5765498E-004	5.1474385E-003	9.2131720E-004	5.2292398E-003	1.0147665E+001	-4.158265865682753E-007
1.1217711E+004	1.9045033E+002	3.4846245E+001	1.9361195E+002	-1.0368584E+001	2.355148677193210E+001	-4.4569350E-004	-5.8678619E-004	4.0715516E-001	1.3188869E-002	1.000000000000000E+000	11	1.3042405E-001	6.7363639E-004	-1.048654756636905E-006	-5.5848894E-004	5.0806277E-003	9.2959031E-004	5.1649702E-003	1.0368584E+001	-1.692194591822853E-007
1.0002229E+004	1.9276967E+002	3.6052235E+001	1.9611198E+002	-1.0593214E+001	2.401147548711742E+001	-4.4668125E-004	-5.9442839E-004	4.4135812E-001	1.4915823E-002	1.000000000000000E+000	11	1.3122799E-001	6.6914823E-004	-4.252057101326096E-007	-3.9815533E-004	5.0122240E-003	9.3739777E-004	5.0991275E-003	1.0593214E+001	6.234490465042958E-007
8.9149297E+003	1.9517987E+002	3.7276424E+001	1.9870761E+002	-1.0812426E+001	2.449391287006438E+001	-4.2979509E-004	-5.0608092E-004	4.7892550E-001	1.6854173E-002	1.000000000000000E+000	11	1.3184923E-001	6.6353387E-004	-6.789493261074110E-007	-1.5765498E-004	4.9431752E-003	9.4407221E-004	5.0325198E-003	1.0812426E+001	-2.537436159748015E-007
7.9439976E+003	1.9771921E+002	3.8555664E+001	2.0144336E+002	-1.1034326E+001	2.501999900172814E+001	-4.3020520E-004	-4.9303530E-004	5.1962835E-001	1.9035457E-002	1.000000000000000E+000	11	1.3231440E-001	6.5683178E-004	-4.981525154196586E-007	2.4317895E-004	4.8724003E-003	9.5012836E-004	4.9641747E-003	1.1034326E+001	1.807968106877524E-007
7.0822334E+003	2.0033690E+002	3.9871693E+001	2.0426607E+002	-1.1256109E+001	2.559686830913415E+001	-4.1661793E-004	-4.9825403E-004	5.6361848E-001	2.1474453E-002	1.000000000000000E+000	11	1.3266206E-001	6.4945716E-004	1.631534559540645E-008	3.2334571E-004	4.8014070E-003	9.5559144E-004	4.8955758E-003	1.1256109E+001	5.144678610150651E-007
6.3077344E+003	2.0309993E+002	4.1208900E+001	2.0723840E+002	-1.1469589E+001	2.623055535249296E+001	-4.1190244E-004	-5.4708909E-004	6.1228794E-001	2.4210138E-002	1.000000000000000E+000	11	1.3292001E-001	6.4138696E-004	-5.238016981865157E-007	-7.7488192E-005	4.7289999E-003	9.5951231E-004	4.8253606E-003	1.1469589E+001	-5.401170437819222E-007
5.6210552E+003	2.0594943E+002	4.2582096E+001	2.1030550E+002	-1.1681865E+001	2.693125223912648E+001	-4.0612460E-004	-6.1120611E-004	6.6492897E-001	2.7260138E-002	1.000000000000000E+000	11	1.3310449E-001	6.3291017E-004	-1.073233694787632E-006	8.2845378E-005	4.6564974E-003	9.6277724E-004	4.7549875E-003	1.1681865E+001	-5.494319966011163E-007
5.0116035E+003	2.0886661E+002	4.3971428E+001	2.1344495E+002	-1.1888530E+001	2.769170870197559E+001	-4.1400859E-004	-6.3972565E-004	7.2222555E-001	3.0650830E-002	1.000000000000000E+000	11	1.3322379E-001	6.2415993E-004	-1.590348643876900E-006	2.6785929E-006	4.5845560E-003	9.6515892E-004	4.6850489E-003	1.1888530E+001	-5.171149490892680E-007
4.4664292E+003	2.1187852E+002	4.5360935E+001	2.1667978E+002	-1.2083999E+001	2.845169945806992E+001	-4.0321701E-004	-5.6945748E-004	7.8555697E-001	3.4427453E-002	1.000000000000000E+000	11	1.3330713E-001	6.1522645E-004	-1.948815360906640E-006	-7.7488192E-005	4.5128427E-003	9.6615142E-004	4.6151052E-003	1.2083999E+001	-3.584667170297405E-007
3.9812742E+003	2.1499387E+002	4.6829277E+001	2.2003487E+002	-1.2288051E+001	2.921168413417035E+001	-4.1553684E-004	-6.8594952E-004	8.5365140E-001	3.8666289E-002	1.000000000000000E+000	11	1.3335598E-001	6.0606748E-004	-1.557369051561384E-006	8.2845378E-005	4.4406145E-003	9.6724043E-004	4.5447345E-003	1.2288051E+001	3.914463093452567E-007
3.5465955E+003	2.1818469E+002	4.8327816E+001	2.2347290E+002	-1.2489346E+001	2.997193041024730E+001	-4.0004856E-004	-5.7374471E-004	9.2856288E-001	4.3426611E-002	1.000000000000000E+000	11	1.3338202E-001	5.9685996E-004	-1.649068638535634E-006	-3.9815533E-004	4.3689245E-003	9.6771494E-004	4.4748154E-003	1.2489346E+001	-9.169958697424977E-008
3.1610112E+003	2.2148546E+002	4.9869030E+001	2.2703024E+002	-1.2688952E+001	3.073169628636970E+001	-4.2058781E-004	-7.4205344E-004	1.0096321E+000	4.8714425E-002	1.000000000000000E+000	11	1.3339651E-001	5.8757153E-004	-1.434210483628703E-006	-7.7488192E-005	4.2971233E-003	9.6752791E-004	4.4046994E-003	1.2688952E+001	2.148581549069301E-007
2.8172952E+003	2.2485588E+002	5.1474133E+001	2.3067239E+002	-1.2894011E+001	3.149192629579920E+001	-4.0485719E-004	-6.2090106E-004	1.0974854E+000	5.4649420E-002	1.000000000000000E+000	11	1.3339399E-001	5.7828327E-004	-1.104246371396584E-006	-7.7488192E-005	4.2258394E-003	9.6738152E-004	4.3351525E-003	1.2894011E+001	3.299641122321191E-007
2.5108032E+003	2.2832932E+002	5.3136482E+001	2.3443073E+002	-1.3100616E+001	3.225167854523170E+001	-3.9484847E-004	-5.5044622E-004	1.1929291E+000	6.1287399E-002	1.000000000000000E+000	11	1.3338405E-001	5.6896999E-004	-1.370025501067883E-006	-2.3782176E-004	4.1546328E-003	9.6686033E-004	4.2656525E-003	1.3100616E+001	-2.657791296712984E-007
2.2378516E+003	2.3188721E+002	5.4904480E+001	2.3829851E+002	-1.3320747E+001	3.301194292798755E+001	-4.0127858E-004	-6.0785440E-004	1.2953320E+000	6.8762869E-002	1.000000000000000E+000	11	1.3337153E-001	5.5968261E-004	-1.996105780485878E-006	2.6785929E-006	4.0835151E-003	9.6686347E-004	4.1964175E-003	1.3320747E+001	-6.260802794179957E-007
1.9956389E+003	2.3557495E+002	5.6746307E+001	2.4231323E+002	-1.3543631E+001	3.377171061742411E+001	-3.9199690E-004	-6.3282996E-004	1.4054021E+000	7.7076420E-002	1.000000000000000E+000	11	1.3335174E-001	5.5032794E-004	-1.667127782149894E-006	-2.3782176E-004	4.0121283E-003	9.6645876E-004	4.1268896E-003	1.3543631E+001	3.289779983359849E-007
1.7782927E+003	2.3953258E+002	5.8743214E+001	2.4663054E+002	-1.3779327E+001	3.453194118684041E+001	-4.0111088E-004	-6.0543121E-004	1.5235586E+000	8.6433254E-002	1.000000000000000E+000	11	1.3333037E-001	5.4060773E-004	-2.128372190923174E-006	-2.3782176E-004	3.9379564E-003	9.6574839E-004	4.0546479E-003	1.3779327E+001	-4.612444087732808E-007
1.5855076E+003	2.4351242E+002	6.0802937E+001	2.5098863E+002	-1.4019597E+001	3.529169890295452E+001	-3.9277974E-004	-6.4159062E-004	1.6509246E+000	9.6887611E-002	1.000000000000000E+000	11	1.3330995E-001	5.3113938E-004	-2.604720365974370E-006	-1.5765498E-004	3.8655652E-003	9.6519809E-004	3.9842441E-003	1.4019597E+001	-4.763481750511955E-007
1.4118373E+003	2.4765819E+002	6.2974823E+001	2.5553944E+002	-1.4266876E+001	3.605319776575197E+001	-4.0528586E-004	-6.3283095E-004	1.7900639E+000	1.0871428E-001	1.000000000000000E+000	11	1.3328524E-001	5.2158383E-004	-3.005978568682218E-006	-2.3782176E-004	3.7925981E-003	9.6438645E-004	3.9132903E-003	1.4266876E+001	-4.012582027078477E-007
1.2587914E+003	2.5198643E+002	6.5253342E+001	2.6029822E+002	-1.4518162E+001	3.681295961519936E+001	-4.0206139E-004	-6.2686624E-004	1.9375976E+000	1.2176619E-001	1.000000000000000E+000	11	1.3326348E-001	5.1196467E-004	-3.572884645945629E-006	2.4317895E-004	3.7190735E-003	9.6307561E-004	3.8417473E-003	1.4518162E+001	-5.669060772634111E-007
1.1217948E+003	2.5655548E+002	6.7629089E+001	2.6531946E+002	-1.4767471E+001	3.757143909120350E+001	-4.0237833E-004	-6.2817120E-004	2.0978439E+000	1.3630193E-001	1.000000000000000E+000	11	1.3324401E-001	5.0220219E-004	-3.518557974897703E-006	-1.5765498E-004	3.6445432E-003	9.6071663E-004	3.7690413E-003	1.4767471E+001	5.432667104792547E-008
1.0003201E+003	2.6135452E+002	7.0095680E+001	2.7059119E+002	-1.5013489E+001	3.833070307396702E+001	-4.0155827E-004	-6.7253213E-004	2.2698121E+000	1.5231586E-001	1.000000000000000E+000	11	1.3322152E-001	4.9233506E-004	-4.018034463711552E-006	-5.5848894E-004	3.5694616E-003	9.5733511E-004	3.6956118E-003	1.5013489E+001	-4.994764888138490E-007
8.9142657E+002	2.6644513E+002	7.2575569E+001	2.7615253E+002	-1.5236848E+001	3.908941238993430E+001	-4.0344070E-004	-6.3749024E-004	2.4600508E+000	1.6991313E-001	1.000000000000000E+000	11	1.3320212E-001	4.8234980E-004	-4.481896364136952E-006	-1.5765498E-004	3.4938941E-003	9.5168332E-004	3.6211873E-003	1.5236848E+001	-4.638619004253996E-007
7.9423773E+002	2.7190192E+002	7.5145309E+001	2.8209479E+002	-1.5449159E+001	3.984892490605125E+001	-4.0946083E-004	-6.5762020E-004	2.6666605E+000	1.8922625E-001	1.000000000000000E+000	11	1.3318619E-001	4.7213279E-004	-4.275780066872458E-006	-1.5765498E-004	3.4168204E-003	9.4430387E-004	3.5449078E-003	1.5449159E+001	2.061162972644934E-007
7.0750946E+002	2.7762381E+002	7.7686310E+001	2.8828830E+002	-1.5632992E+001	4.061145904890145E+001	-4.0905076E-004	-5.8865669E-004	2.8956323E+000	2.1027049E-001	1.000000000000000E+000	11	1.3316934E-001	4.6193114E-004	-4.852789612521317E-006	-7.7488192E-005	3.3404322E-003	9.3473919E-004	3.4687498E-003	1.5632992E+001	-5.770095456488585E-007
6.3100964E+002	2.8358636E+002	8.0178375E+001	2.9470291E+002	-1.5787189E+001	4.136941993827350E+001	-4.0269524E-004	-6.3171255E-004	3.1457696E+000	2.3284802E-001	1.000000000000000E+000	11	1.3315390E-001	4.5182416E-004	-5.348034001494347E-006	-7.7488192E-005	3.2652505E-003	9.2318421E-004	3.3932477E-003	1.5787189E+001	-4.952443889730304E-007
5.6233929E+002	2.8990961E+002	8.2610687E+001	3.0145001E+002	-1.5905074E+001	4.237592318607494E+001	-4.0552812E-004	-5.5065448E-004	3.4259849E+000	2.5729263E-001	1.000000000000000E+000	12	1.3414179E-001	4.4498852E-004	-5.912567785166984E-006	3.2334571E-004	3.1903035E-003	9.0908731E-004	3.3172995E-003	1.5905074E+001	-5.645337836726362E-007
5.0144415E+002	2.9654083E+002	8.4921791E+001	3.0846097E+002	-1.5980373E+001	4.313315930202953E+001	-4.0996404E-004	-5.6620402E-004	3.7374761E+000	2.8328022E-001	1.000000000000000E+000	12	1.3401483E-001	4.3446283E-004	-5.725670069223674E-006	8.2845378E-005	3.1166214E-003	8.9252158E-004	3.2419013E-003	1.5980373E+001	1.868977159433094E-007
4.4685895E+002	3.0349072E+002	8.7093582E+001	3.1574026E+002	-1.6012037E+001	4.388991019132664E+001	-4.0785791E-004	-5.6143117E-004	4.0894370E+000	3.1115437E-001	1.000000000000000E+000	12	1.3389745E-001	4.2407468E-004	-6.138969435238930E-006	-1.5765498E-004	3.0442863E-003	8.7362720E-004	3.1671601E-003	1.6012037E+001	-4.132993660152554E-007
3.9808920E+002	3.1075632E+002	8.9063599E+001	3.2326740E+002	-1.5992446E+001	4.465270233424235E+001	-4.0509950E-004	-5.5184832E-004	4.4888954E+000	3.4073454E-001	1.000000000000000E+000	12	1.3378902E-001	4.1386485E-004	-6.455691672360747E-006	-7.7488192E-005	2.9736930E-003	8.5226848E-004	3.0934142E-003	1.5992446E+001	-3.167222371218177E-007
3.5465955E+002	3.1824823E+002	9.0813560E+001	3.3095172E+002	-1.5926334E+001	4.541294882367947E+001	-4.0582643E-004	-5.8734667E-004	4.9414887E+000	3.7207448E-001	1.000000000000000E+000	12	1.3369665E-001	4.0397627E-004	-6.552932041896484E-006	3.2334571E-004	2.9056061E-003	8.2912768E-004	3.0215888E-003	1.5926334E+001	-9.724036953573723E-008
3.1631586E+002	3.2591748E+002	9.2335678E+001	3.3874487E+002	-1.5817955E+001	4.616992005961947E+001	-4.0968443E-004	-5.5826240E-004	5.4491606E+000	4.0487713E-001	1.000000000000000E+000	12	1.3360673E-001	3.9441697E-004	-6.753181123452426E-006	2.6785929E-006	2.8402868E-003	8.0468162E-004	2.9520742E-003	1.5817955E+001	-2.002490815559415E-007
2.8189429E+002	3.3380762E+002	9.3543808E+001	3.4666693E+002	-1.5654609E+001	4.692538478880306E+001	-4.0884584E-004	-5.6907604E-004	6.0355773E+000	4.3946478E-001	1.000000000000000E+000	12	1.3353086E-001	3.8518486E-004	-6.631927835728776E-006	-3.1798857E-004	2.7776107E-003	7.7837735E-004	2.8846131E-003	1.5654609E+001	1.212532877236504E-007
2.5104436E+002	3.4190585E+002	9.4473450E+001	3.5471799E+002	-1.5446232E+001	4.768194045143900E+001	-4.1009454E-004	-5.6068605E-004	6.7105770E+000	4.7600663E-001	1.000000000000000E+000	12	1.3346474E-001	3.7625592E-004	-6.390114075655018E-006	2.4317895E-004	2.7173159E-003	7.5083296E-004	2.8191409E-003	1.5446232E+001	2.418137600737578E-007
2.2392513E+002	3.5004346E+002	9.5048538E+001	3.6271841E+002	-1.5191439E+001	4.844472440768732E+001	-4.0679553E-004	-5.6473189E-004	7.4777665E+000	5.1348001E-001	1.000000000000000E+000	12	1.3340370E-001	3.6778863E-004	-6.233618830602710E-006	-3.9815533E-004	2.6606193E-003	7.2244741E-004	2.7569595E-003	1.5191439E+001	1.564952450523082E-007
1.9955299E+002	3.5835367E+002	9.5335793E+001	3.7081836E+002	-1.4897799E+001	4.920619340383564E+001	-4.0763424E-004	-5.5925077E-004	8.3657694E+000	5.5296212E-001	1.000000000000000E+000	12	1.3334846E-001	3.5960588E-004	-6.609094900533818E-006	-4.7832212E-004	2.6060899E-003	6.9331966E-004	2.6967381E-003	1.4897799E+001	-3.754760699311090E-007
1.7778128E+002	3.6671234E+002	9.5274895E+001	3.7888684E+002	-1.4563926E+001	4.997422917364747E+001	-4.0731739E-004	-5.1127962E-004	9.3962736E+000	5.9414649E-001	1.000000000000000E+000	12	1.3330042E-001	3.5182119E-004	-7.073696096334364E-006	4.0351250E-004	2.5545033E-003	6.6368107E-004	2.6393104E-003	1.4563926E+001	-4.646011958005452E-007
1.5842838E+002	3.7505014E+002	9.4825340E+001	3.8685199E+002	-1.4188953E+001	5.074071987673960E+001	-4.0692603E-004	-5.7008321E-004	1.0594068E+001	6.3653445E-001	1.000000000000000E+000	12	1.3326214E-001	3.4447838E-004	-6.937667545672108E-006	8.2845378E-005	2.5061073E-003	6.3362857E-004	2.5849680E-003	1.4188953E+001	1.360285506622557E-007
1.4131134E+002	3.8332486E+002	9.4016754E+001	3.9468607E+002	-1.3780705E+001	5.149387745917193E+001	-4.1436270E-004	-5.4375804E-004	1.1979477E+001	6.7974305E-001	1.000000000000000E+000	12	1.3322839E-001	3.3755534E-004	-7.358932582378960E-006	-2.3782176E-004	2.4607268E-003	6.0353387E-004	2.5336593E-003	1.3780705E+001	-4.212650367068519E-007
1.2584569E+002	3.9158862E+002	9.2800926E+001	4.0243466E+002	-1.3332324E+001	5.224939877502038E+001	-4.1326298E-004	-5.7323487E-004	1.3627917E+001	7.2467512E-001	1.000000000000000E+000	12	1.3319474E-001	3.3097234E-004	-7.201595147046949E-006	-3.9815533E-004	2.4179055E-003	5.7300914E-004	2.4848755E-003	1.3332324E+001	1.573374353320104E-007
1.1218996E+002	3.9970419E+002	9.1262474E+001	4.0999060E+002	-1.2861585E+001	5.299483825046627E+001	-4.1330029E-004	-5.6014658E-004	1.5544397E+001	7.7021253E-001	1.000000000000000E+000	12	1.3317107E-001	3.2481493E-004	-7.038146287529849E-006	3.2334571E-004	2.3778854E-003	5.4293079E-004	2.4390803E-003	1.2861585E+001	1.634488595171004E-007
1.0003201E+002	4.0757840E+002	8.9333565E+001	4.1725369E+002	-1.2362668E+001	5.375470876656618E+001	-4.2407308E-004	-5.9422757E-004	1.7810104E+001	8.1638575E-001	1.000000000000000E+000	12	1.3314590E-001	3.1910060E-004	-7.277291803868542E-006	-2.3782176E-004	2.3410504E-003	5.1311444E-004	2.3966234E-003	1.2362668E+001	-2.391455163386932E-007
8.9115974E+001	4.1528375E+002	8.7058311E+001	4.2431091E+002	-1.1839788E+001	5.452173069633136E+001	-4.1188381E-004	-5.7534152E-004	2.0514189E+001	8.6358762E-001	1.000000000000000E+000	12	1.3312903E-001	3.1375349E-004	-7.688320551819844E-006	2.6785929E-006	2.3066225E-003	4.8355051E-004	2.3567623E-003	1.1839788E+001	-4.110287479513020E-007
7.9415527E+001	4.2268759E+002	8.4481689E+001	4.3104752E+002	-1.1302656E+001	5.528624963926268E+001	-4.1218204E-004	-5.5981113E-004	2.3722044E+001	9.1122788E-001	1.000000000000000E+000	12	1.3311064E-001	3.0880736E-004	-7.432634690289787E-006	-3.9815533E-004	2.2749361E-003	4.5468679E-004	2.3199299E-003	1.1302656E+001	2.556858615300573E-007
7.0838745E+001	4.2968234E+002	8.1621941E+001	4.3736606E+002	-1.0755689E+001	5.603736399495392E+001	-4.1488450E-004	-5.7683373E-004	2.7525953E+001	9.5866317E-001	1.000000000000000E+000	12	1.3310149E-001	3.0432516E-004	-7.700532884292139E-006	8.2845378E-005	2.2462464E-003	4.2669426E-004	2.2864144E-003	1.0755689E+001	-2.678981940023518E-007
6.3082302E+001	4.3644302E+002	7.8497993E+001	4.4344611E+002	-1.0196122E+001	5.681782432537875E+001	-4.1007585E-004	-5.6747400E-004	3.2140606E+001	1.0071391E+000	1.000000000000000E+000	12	1.3308810E-001	3.0012237E-004	-7.938201005040153E-006	-1.5765498E-004	2.2194525E-003	3.9918744E-004	2.2550654E-003	1.0196122E+001	-2.376681207480146E-007
5.6241817E+001	4.4268341E+002	7.5202103E+001	4.4902557E+002	-9.6412420E+000	5.756133817401133E+001	-4.1587232E-004	-5.8050652E-004	3.7629707E+001	1.0554767E+000	1.000000000000000E+000	12	1.3307783E-001	2.9637027E-004	-8.081319365283764E-006	-3.1798857E-004	2.1955892E-003	3.7298194E-004	2.2270447E-003	9.6412420E+000	-1.431183602436101E-007
5.0144413E+001	4.4862665E+002	7.1727104E+001	4.5432437E+002	-9.0836573E+000	5.831818756993744E+001	-4.1397128E-004	-5.7478301E-004	4.4250103E+001	1.1029321E+000	1.000000000000000E+000	12	1.3306649E-001	2.9288873E-004	-8.175375293476640E-006	-3.1798857E-004	2.1734666E-003	3.4749712E-004	2.2010705E-003	9.0836573E+000	-9.405592819287605E-008
4.4671219E+001	4.5406015E+002	6.8156273E+001	4.5914691E+002	-8.5365963E+000	5.908220832623192E+001	-4.0562142E-004	-5.4869970E-004	5.2274090E+001	1.1518470E+000	1.000000000000000E+000	12	1.3306110E-001	2.8980069E-004	-8.417955255054014E-006	1.6301216E-004	2.1538232E-003	3.2329757E-004	2.1779521E-003	8.5365963E+000	-2.425799615773746E-007
3.9808922E+001	4.5911969E+002	6.4490341E+001	4.6362689E+002	-7.9957509E+000	5.984471326915809E+001	-4.1302075E-004	-5.6892895E-004	6.1993343E+001	1.1994915E+000	1.000000000000000E+000	12	1.3305734E-001	2.8699229E-004	-8.132869352556226E-006	-3.1798857E-004	2.1359380E-003	3.0002501E-004	2.1569068E-003	7.9957509E+000	2.850859024977885E-007
3.5465305E+001	4.6377628E+002	6.0804489E+001	4.6774524E+002	-7.4692969E+000	6.059514746474451E+001	-4.1020632E-004	-5.5358541E-004	7.3804153E+001	1.2471920E+000	1.000000000000000E+000	12	1.3304915E-001	2.8444789E-004	-8.888651499452838E-006	-4.7832212E-004	2.1197749E-003	2.7791815E-004	2.1379159E-003	7.4692969E+000	-7.557821468966122E-007
3.1629551E+001	4.6800766E+002	5.7196362E+001	4.7148975E+002	-6.9677052E+000	6.131946645918651E+001	-4.0931170E-004	-5.5804098E-004	8.7974884E+001	1.2946459E+000	1.000000000000000E+000	12	1.3304368E-001	2.8217724E-004	-9.096572751436801E-006	-1.5765498E-004	2.1052733E-003	2.5729061E-004	2.1209370E-003	6.9677052E+000	-2.079212519839629E-007
2.8170074E+001	4.7184625E+002	5.3575943E+001	4.7487817E+002	-6.4779248E+000	6.212472849745245E+001	-4.0571450E-004	-5.4991199E-004	1.0545382E+002	1.3422627E+000	1.000000000000000E+000	12	1.3303742E-001	2.8015062E-004	-8.491036032724651E-006	-7.7488192E-005	2.0923584E-003	2.3757755E-004	2.1058032E-003	6.4779248E+000	6.055367187121497E-007
2.5104435E+001	4.7533322E+002	5.0096989E+001	4.7796588E+002	-6.0163865E+000	6.288091784002609E+001	-4.1028095E-004	-5.7168846E-004	1.2654881E+002	1.3902328E+000	1.000000000000000E+000	12	1.3304207E-001	2.7835055E-004	-8.411083787122227E-006	3.2334571E-004	2.0806757E-003	2.1928949E-004	2.0921996E-003	6.0163865E+000	7.995224560242377E-008
2.2385387E+001	4.7846078E+002	4.6624966E+001	4.8072717E+002	-5.5657759E+000	6.356743517928408E+001	-4.1400851E-004	-5.8546627E-004	1.5248846E+002	1.4344212E+000	1.000000000000000E+000	12	1.3303876E-001	2.7674483E-004	-9.281864120092172E-006	-4.7832212E-004	2.0703750E-003	2.0175354E-004	2.0801821E-003	5.5657759E+000	-8.707803329699446E-007
1.9955299E+001	4.8129434E+002	4.3397453E+001	4.8324692E+002	-5.1523252E+000	6.432920990881394E+001	-4.1747521E-004	-5.6063279E-004	1.8377975E+002	1.4821357E+000	1.000000000000000E+000	12	1.3303576E-001	2.7529564E-004	-9.076614641140194E-006	-7.7488192E-005	2.0609742E-003	1.8583437E-004	2.0693354E-003	5.1523252E+000	2.052494789519781E-007
1.7796129E+001	4.8377444E+002	4.0245518E+001	4.8544559E+002	-4.7555237E+000	6.517351162890554E+001	-4.0952602E-004	-5.8842154E-004	2.2221690E+002	1.5273234E+000	1.000000000000000E+000	12	1.3303110E-001	2.7403916E-004	-9.335247773847261E-006	-2.3782176E-004	2.0528717E-003	1.7077976E-004	2.0599631E-003	4.7555237E+000	-2.586331327070674E-007
1.5857576E+001	4.8601761E+002	3.7212826E+001	4.8744016E+002	-4.3784132E+000	6.589594334323192E+001	-4.2004732E-004	-5.9736118E-004	2.6970602E+002	1.5719305E+000	1.000000000000000E+000	12	1.3303155E-001	2.7291873E-004	-9.320118343420770E-006	1.6301216E-004	2.0455467E-003	1.5662101E-004	2.0515339E-003	4.3784132E+000	1.512943042649072E-008
1.4118974E+001	4.8802866E+002	3.4349911E+001	4.8923602E+002	-4.0261254E+000	6.669824359464110E+001	-4.0998266E-004	-5.7538023E-004	3.2816434E+002	1.6177289E+000	1.000000000000000E+000	12	1.3303055E-001	2.7191488E-004	-1.030233741606205E-005	-7.7488192E-005	2.0389589E-003	1.4351218E-004	2.0440032E-003	4.0261254E+000	-9.822190726412770E-007
1.2600808E+001	4.8975488E+002	3.1698166E+001	4.9077960E+002	-3.7031617E+000	6.758883299697482E+001	-4.0934898E-004	-5.8772234E-004	3.9846262E+002	1.6621984E+000	1.000000000000000E+000	12	1.3303158E-001	2.7106176E-004	-9.620784338140437E-006	2.4317895E-004	2.0333203E-003	1.3160160E-004	2.0375745E-003	3.7031617E+000	6.815530779216103E-007
1.1224856E+001	4.9135492E+002	2.9110598E+001	4.9221649E+002	-3.3905573E+000	6.827291510946816E+001	-4.1717707E-004	-5.8149523E-004	4.8706644E+002	1.7036412E+000	1.000000000000000E+000	12	1.3303183E-001	2.7027098E-004	-1.091362946778218E-005	8.2845378E-005	2.0280702E-003	1.2015416E-004	2.0316264E-003	3.3905573E+000	-1.292845129641744E-006
1.0003201E+001	4.9270389E+002	2.6752741E+001	4.9342966E+002	-3.1079834E+000	6.903269157223258E+001	-4.1492184E-004	-5.9357687E-004	5.9472046E+002	1.7482315E+000	1.000000000000000E+000	12	1.3303354E-001	2.6960994E-004	-8.742711917889664E-006	1.6301216E-004	2.0236503E-003	1.0987978E-004	2.0266313E-003	3.1079834E+000	2.170917549892517E-006
8.9183798E+000	4.9387354E+002	2.4531666E+001	4.9448242E+002	-2.8436563E+000	6.987703899899498E+001	-4.0870599E-004	-5.7424285E-004	7.2745673E+002	1.7904389E+000	1.000000000000000E+000	12	1.3302776E-001	2.6902425E-004	-1.124927310652487E-005	-3.1798857E-004	2.0198266E-003	1.0032873E-004	2.0223167E-003	2.8436563E+000	-2.506561188635210E-006
7.9395342E+000	4.9493112E+002	2.2474173E+001	4.9544113E+002	-2.5999401E+000	7.081567221692239E+001	-4.1039271E-004	-5.7647127E-004	8.9195190E+002	1.8353746E+000	1.000000000000000E+000	12	1.3302831E-001	2.6850478E-004	-8.724647056018663E-006	2.4317895E-004	2.0163255E-003	9.1558693E-005	2.0184033E-003	2.5999401E+000	2.524626050506212E-006
7.0765405E+000	4.9584897E+002	2.0549526E+001	4.9627460E+002	-2.3731575E+000	7.137404459007666E+001	-4.2588104E-004	-6.2484317E-004	1.0944535E+003	1.8765358E+000	1.000000000000000E+000	12	1.3302514E-001	2.6804744E-004	-8.751077832638304E-006	-2.3782176E-004	2.0132852E-003	8.3436811E-005	2.0150135E-003	2.3731575E+000	-2.643077661964114E-008
6.3105822E+000	4.9666208E+002	1.8785439E+001	4.9701721E+002	-2.1660876E+000	7.199420757949702E+001	-4.2427809E-004	-6.1578234E-004	1.3425466E+003	1.9179142E+000	1.000000000000000E+000	12	1.3302912E-001	2.6765495E-004	-9.211112401345873E-006	-2.3782176E-004	2.0105650E-003	7.6046374E-005	2.0120027E-003	2.1660876E+000	-4.600345687075688E-007
5.6205034E+000	4.9737659E+002	1.7140247E+001	4.9767184E+002	-1.9737064E+000	7.268064147883706E+001	-4.2002869E-004	-6.2650233E-004	1.6520677E+003	1.9596381E+000	1.000000000000000E+000	12	1.3303211E-001	2.6730890E-004	-1.097237541058666E-005	-6.3865574E-004	2.0081641E-003	6.9203961E-005	2.0093562E-003	1.9737064E+000	-1.761263009240792E-006
5.0144415E+000	4.9790601E+002	1.5620480E+001	4.9815097E+002	-1.7969137E+000	7.343815906145028E+001	-4.0500629E-004	-5.8035861E-004	2.0319042E+003	1.9978826E+000	1.000000000000000E+000	12	1.3302517E-001	2.6703786E-004	-1.373309355859273E-005	-1.5765498E-004	2.0064365E-003	6.2946623E-005	2.0074237E-003	1.7969137E+000	-2.760718148006061E-006
4.4693937E+000	4.9845541E+002	1.4286840E+001	4.9866013E+002	-1.6417749E+000	7.427953872803482E+001	-4.1246155E-004	-5.9684907E-004	2.4925010E+003	2.0459661E+000	1.000000000000000E+000	12	1.3302597E-001	2.6676682E-004	-1.308476807952234E-005	-1.5765498E-004	2.0045505E-003	5.7454876E-005	2.0053738E-003	1.6417749E+000	6.483254790703850E-007
3.9778514E+000	4.9893387E+002	1.2962896E+001	4.9910223E+002	-1.4882778E+000	7.521618853256223E+001	-4.2087675E-004	-6.0060597E-004	3.0865229E+003	2.0820665E+000	1.000000000000000E+000	12	1.3302629E-001	2.6653113E-004	-8.752705861814674E-006	-4.7832212E-004	2.0029217E-003	5.2038289E-005	2.0035976E-003	1.4882778E+000	4.332062217707667E-006
3.5511365E+000	4.9932620E+002	1.1860130E+001	4.9946704E+002	-1.3606489E+000	7.625739956865436E+001	-4.1439990E-004	-5.6869659E-004	3.7788816E+003	2.1307306E+000	1.000000000000000E+000	12	1.3303024E-001	2.6634437E-004	-1.127915425902792E-005	-1.5765498E-004	2.0015696E-003	4.7541820E-005	2.0021342E-003	1.3606489E+000	-2.526448397213244E-006
3.1603966E+000	4.9963547E+002	1.0750597E+001	4.9975110E+002	-1.2326363E+000	7.741925130385789E+001	-4.0016038E-004	-5.6230178E-004	4.6843135E+003	2.1677222E+000	1.000000000000000E+000	12	1.3302711E-001	2.6618672E-004	-1.587762857038004E-005	-7.7488192E-005	2.0005330E-003	4.3045235E-005	2.0009961E-003	1.2326363E+000	-4.598474311352117E-006
2.8183618E+000	4.9992688E+002	9.8001175E+000	5.0002292E+002	-1.1230311E+000	7.871464917877165E+001	-4.0371070E-004	-5.5858173E-004	5.7622500E+003	2.2134762E+000	1.000000000000000E+000	12	1.3302702E-001	2.6604184E-004	-8.734140718111979E-006	-2.3782176E-004	1.9995242E-003	3.9196875E-005	1.9999084E-003	1.1230311E+000	7.143487852268056E-006
2.5136740E+000	5.0010696E+002	8.9403524E+000	5.0018686E+002	-1.0241607E+000	8.015868714069074E+001	-4.0404615E-004	-5.5297615E-004	7.0820098E+003	2.2625661E+000	1.000000000000000E+000	12	1.3302839E-001	2.6595738E-004	-1.276085078126799E-005	-1.5765498E-004	1.9989335E-003	3.5734698E-005	1.9992529E-003	1.0241607E+000	-4.026710063156012E-006
2.2398219E+000	5.0024319E+002	8.1318884E+000	5.0030930E+002	-9.3131071E-001	8.177342417734326E+001	-4.0900879E-004	-5.5775279E-004	8.7380635E+003	2.3084524E+000	1.000000000000000E+000	12	1.3302667E-001	2.6588887E-004	-1.623716399576809E-005	8.2845378E-005	1.9984995E-003	3.2487347E-005	1.9987635E-003	9.3131071E-001	-3.476313214500099E-006
1.9970604E+000	5.0036014E+002	7.3759575E+000	5.0041449E+002	-8.4455293E-001	8.357767223641713E+001	-4.0460087E-004	-5.4379751E-004	1.0804646E+004	2.3474026E+000	1.000000000000000E+000	12	1.3302873E-001	2.6583709E-004	-6.835892203054906E-006	-1.5765498E-004	1.9981265E-003	2.9454975E-005	1.9983435E-003	8.4455293E-001	9.401271792713183E-006
1.7796129E+000	5.0045065E+002	6.7080107E+000	5.0049561E+002	-7.6794326E-001	8.559593518558540E+001	-4.0117832E-004	-5.5041723E-004	1.3332170E+004	2.3949022E+000	1.000000000000000E+000	12	1.3302913E-001	2.6579481E-004	-1.977137003505327E-005	-7.7488192E-005	1.9978401E-003	2.6778933E-005	1.9980196E-003	7.6794326E-001	-1.293547783199837E-005
1.5846854E+000	5.0046268E+002	6.1000299E+000	5.0049985E+002	-6.9833112E-001	8.785509443955380E+001	-4.0036195E-004	-5.3773506E-004	1.6464369E+004	2.4456885E+000	1.000000000000000E+000	12	1.3302729E-001	2.6578887E-004	-8.777422099038277E-006	1.6301216E-004	1.9978543E-003	2.4351408E-005	1.9980026E-003	6.9833112E-001	1.099394793601500E-005
1.4122382E+000	5.0041675E+002	5.5540409E+000	5.0044757E+002	-6.3589007E-001	9.038409967967891E+001	-3.9880880E-004	-5.3265126E-004	2.0290982E+004	2.4992175E+000	1.000000000000000E+000	12	1.3302943E-001	2.6582091E-004	-1.565096424009279E-005	-3.9815533E-004	1.9980881E-003	2.2176444E-005	1.9982113E-003	6.3589007E-001	-6.873542141054511E-006
1.2596743E+000	5.0040305E+002	5.0306706E+000	5.0042834E+002	-5.7598865E-001	9.321195370733039E+001	-4.0023148E-004	-5.3970265E-004	2.5115162E+004	2.5380719E+000	1.000000000000000E+000	12	1.3303059E-001	2.6583346E-004	-1.648659692912153E-005	-7.7488192E-005	1.9981870E-003	2.0088250E-005	1.9982881E-003	5.7598865E-001	-8.356326890287462E-007
1.1224856E+000	5.0035291E+002	4.5960584E+000	5.0037402E+002	-5.2628320E-001	9.638001015112968E+001	-3.9527481E-004	-5.1119860E-004	3.0849902E+004	2.6027675E+000	1.000000000000000E+000	12	1.3303089E-001	2.6586291E-004	-8.836084093342632E-006	-2.3782176E-004	1.9984208E-003	1.8356761E-005	1.9985051E-003	5.2628320E-001	7.650512835778902E-006
1.0000638E+000	5.0025739E+002	4.1524038E+000	5.0027463E+002	-4.7557470E-001	9.992915514638298E+001	-3.9566931E-004	-5.1918469E-004	3.8325945E+004	2.6404324E+000	1.000000000000000E+000	12	1.3302901E-001	2.6591198E-004	-2.514313546598421E-005	-7.7488192E-005	1.9988331E-003	1.6591384E-005	1.9989021E-003	4.7557470E-001	-1.630705137264158E-005