EC-Lab ASCII FILE
Nb header lines : 60                          

Potentio Electrochemical Impedance Spectroscopy

Run on channel : 1 (SN 20909)
User : 
CE vs. WE compliance from -10 V to 10 V
Electrode connection : standard
Ewe ctrl range : min = -10.00 V, max = 10.00 V
Acquisition started on : 02/20/2020 14:48:36
Technique started on : 02/20/2020 14:48:37
Saved on :
	File : DE_65_9_60.mpr
	Directory : P:\Chemistry\Data\VMP3\Kyler\DOE\DE_65\60C\
	Host : 10.0.4.64
Device : VMP3 (SN 1432)
Address : USB
EC-Lab for windows v11.33 (software)
Internet server v11.32 (firmware)
Command interpretor v11.33 (firmware)
Electrode material : 
Initial state : 
Electrolyte : 
Comments : 
Electrode surface area : 0.001 cm²
Characteristic mass : 0.001 g
Equivalent Weight : 0.000 g/eq.
Density : 0.000 g/cm3
Record Analogic IN 1
Cycle Definition : Charge/Discharge alternance
Mode                Single sine         
E (V)               0.0000              
vs.                 Eoc                 
tE (h:m:s)          0:00:0.0000         
record              0                   
dI                  1.000               
unit dI             mA                  
dt (s)              0.000               
fi                  1.000               
unit fi             MHz                 
ff                  1.000               
unit ff             Hz                  
Nd                  20                  
Points              per decade          
spacing             Logarithmic         
Va (mV)             128.0               
pw                  0.50                
Na                  3                   
corr                0                   
E range min (V)     -10.000             
E range max (V)     10.000              
I Range             Auto                
Bandwidth           5                   
nc cycles           0                   
goto Ns'            0                   
nr cycles           0                   
inc. cycle          1                   

freq/Hz	Re(Z)/Ohm	-Im(Z)/Ohm	|Z|/Ohm	Phase(Z)/deg	time/s	<Ewe>/V	<I>/mA	Cs/µF	Cp/µF	cycle number	I Range	|Ewe|/V	|I|/A	(Q-Qo)/mA.h	Analog IN 1/V	Re(Y)/Ohm-1	Im(Y)/Ohm-1	|Y|/Ohm-1	Phase(Y)/deg	dq/mA.h	
1.0000186E+006	7.3998802E+001	1.0262755E+002	1.2652366E+002	-5.4206802E+001	1.645475064782659E+000	-3.1978926E-001	6.5929501E-004	1.5507725E-003	1.0203109E-003	1.000000000000000E+000	11	7.3556934E-004	5.8136902E-006	2.534123013281512E-007	2.1918953E-005	4.6225451E-003	6.4109215E-003	7.9036597E-003	5.4206802E+001	2.534123013281512E-007
8.9124669E+005	8.4146194E+001	1.0155879E+002	1.3188924E+002	-5.0356670E+001	2.241484373080311E+000	-3.1927475E-001	5.9341453E-004	1.7583474E-003	1.0426079E-003	1.000000000000000E+000	11	1.3806078E-003	1.0467934E-005	3.145586684946061E-007	1.0212145E-004	4.8374417E-003	5.8384668E-003	7.5821197E-003	5.0356670E+001	6.114636716645488E-008
7.9433269E+005	9.5138184E+001	1.0274622E+002	1.4002878E+002	-4.7201756E+001	2.836494081391720E+000	-3.1881371E-001	6.2906125E-004	1.9500774E-003	1.0499024E-003	1.000000000000000E+000	11	1.9020652E-003	1.3583388E-005	3.777692500944896E-007	-2.1868854E-004	4.8519941E-003	5.2399989E-003	7.1413890E-003	4.7201756E+001	6.321058159988349E-008
7.0794981E+005	1.0575446E+002	1.0310285E+002	1.4769632E+002	-4.4272625E+001	3.432497096335283E+000	-3.1838667E-001	5.9677503E-004	2.1804541E-003	1.0625491E-003	1.000000000000000E+000	11	1.8841176E-003	1.2756700E-005	5.440465267448518E-007	-2.1868854E-004	4.8479633E-003	4.7264094E-003	6.7706495E-003	4.4272625E+001	1.662772766503622E-007
6.3095681E+005	1.1579508E+002	1.0573336E+002	1.5680576E+002	-4.2399437E+001	4.028492031298811E+000	-3.1799054E-001	6.3988724E-004	2.3856596E-003	1.0846972E-003	1.000000000000000E+000	11	9.1304217E-004	5.8227592E-006	5.740175605848587E-007	-2.1868854E-004	4.7094063E-003	4.3001939E-003	6.3773170E-003	4.2399437E+001	2.997103384000690E-008
5.6234225E+005	1.2724050E+002	1.0450774E+002	1.6465726E+002	-3.9397636E+001	4.624482406274183E+000	-3.1767309E-001	5.9267005E-004	2.7081391E-003	1.0909531E-003	1.000000000000000E+000	11	1.4008487E-003	8.5076645E-006	5.082664629509155E-007	2.6252642E-004	4.6931412E-003	3.8546654E-003	6.0732216E-003	3.9397636E+001	-6.575109763394320E-008
5.0120619E+005	1.3766777E+002	1.0574026E+002	1.7358980E+002	-3.7527248E+001	5.221478541294346E+000	-3.1738439E-001	5.9845712E-004	3.0030555E-003	1.1142835E-003	1.000000000000000E+000	11	5.3148046E-003	3.0617033E-005	4.171019294046548E-007	2.1918953E-005	4.5686080E-003	3.5090696E-003	5.7607074E-003	3.7527248E+001	-9.116453354626066E-008
4.4668572E+005	1.4788702E+002	1.0576547E+002	1.8181558E+002	-3.5571499E+001	5.816473129583756E+000	-3.1710795E-001	6.9121388E-004	3.3687917E-003	1.1399867E-003	1.000000000000000E+000	11	1.0883481E-002	5.9860002E-005	3.604357611345929E-007	-2.1868854E-004	4.4737104E-003	3.1994972E-003	5.5000787E-003	3.5571499E+001	-5.666616827006186E-008
3.9810347E+005	1.5786490E+002	1.0515867E+002	1.8968307E+002	-3.3668808E+001	6.412491717870580E+000	-3.1694475E-001	7.7165320E-004	3.8017109E-003	1.1684553E-003	1.000000000000000E+000	11	1.8114246E-002	9.5497431E-005	2.651103278686707E-007	-5.8283542E-005	4.3876139E-003	2.9227247E-003	5.2719517E-003	3.3668808E+001	-9.532543326592229E-008
3.5480997E+005	1.6794177E+002	1.0433055E+002	1.9771014E+002	-3.1849812E+001	7.008487346203765E+000	-3.1682885E-001	7.1697083E-004	4.2994493E-003	1.1972309E-003	1.000000000000000E+000	11	2.6929868E-002	1.3620884E-004	6.313566184479795E-007	-5.8283542E-005	4.2963615E-003	2.6690308E-003	5.0579095E-003	3.1849812E+001	3.662462905793088E-007
3.1622997E+005	1.7758347E+002	1.0277810E+002	2.0518095E+002	-3.0060516E+001	7.604498147818958E+000	-3.1674564E-001	7.2312902E-004	4.8968471E-003	1.2286936E-003	1.000000000000000E+000	11	3.7363380E-002	1.8209965E-004	1.149428378902182E-006	-2.1868854E-004	4.2182123E-003	2.4413299E-003	4.8737465E-003	3.0060516E+001	5.180717604542023E-007
2.8183453E+005	1.8671896E+002	1.0054697E+002	2.1206995E+002	-2.8302181E+001	8.200485989480512E+000	-3.1670547E-001	6.9103186E-004	5.6163860E-003	1.2625153E-003	1.000000000000000E+000	11	4.9254298E-002	2.3225497E-004	1.450304905528254E-006	-5.8283542E-005	4.1517401E-003	2.2356857E-003	4.7154254E-003	2.8302181E+001	3.008765266260727E-007
2.5118764E+005	1.9548734E+002	9.8062973E+001	2.1870447E+002	-2.6639870E+001	8.795476444385713E+000	-3.1669465E-001	6.0480915E-004	6.4612539E-003	1.2990073E-003	1.000000000000000E+000	11	6.2608652E-002	2.8627057E-004	2.165541624349620E-006	-4.5929602E-004	4.0869876E-003	2.0501693E-003	4.5723803E-003	2.6639870E+001	7.152367188213653E-007
2.2387173E+005	2.0372830E+002	9.5214325E+001	2.2487994E+002	-2.5049475E+001	9.391485406056745E+000	-3.1661353E-001	9.1685925E-004	7.4665253E-003	1.3385103E-003	1.000000000000000E+000	11	7.7255890E-002	3.4354281E-004	2.220970420693953E-006	-4.5929602E-004	4.0285606E-003	1.8827855E-003	4.4468171E-003	2.5049475E+001	5.542879634433307E-008
1.9954350E+005	2.1143582E+002	9.2032143E+001	2.3059709E+002	-2.3522156E+001	9.988480661093490E+000	-3.1660268E-001	7.5579574E-004	8.6664855E-003	1.3804302E-003	1.000000000000000E+000	11	9.3242712E-002	4.0435337E-004	3.250280956878265E-006	3.4272892E-004	3.9762245E-003	1.7307402E-003	4.3365681E-003	2.3522156E+001	1.029310536184312E-006
1.7783180E+005	2.1874326E+002	8.8741516E+001	2.3605861E+002	-2.2081804E+001	1.058449015606311E+001	-3.1656888E-001	7.6512794E-004	1.0085185E-002	1.4252724E-003	1.000000000000000E+000	11	1.1046929E-001	4.6797399E-004	4.333825883840392E-006	-4.5929602E-004	3.9255000E-003	1.5925283E-003	4.2362362E-003	2.2081804E+001	1.083544926962127E-006
1.5848613E+005	2.2550183E+002	8.5441849E+001	2.4114598E+002	-2.0751522E+001	1.104348431117251E+001	-3.1652015E-001	8.3866203E-004	1.1753257E-002	1.4755009E-003	1.000000000000000E+000	11	1.2873551E-001	5.3384888E-004	3.904579623220747E-006	2.1918953E-005	3.8778409E-003	1.4693004E-003	4.1468656E-003	2.0751522E+001	-4.292462606196450E-007
1.4125594E+005	2.3184732E+002	8.2164253E+001	2.4597591E+002	-1.9513790E+001	1.163849740612204E+001	-3.1650352E-001	6.1059755E-004	1.3712937E-002	1.5300696E-003	1.000000000000000E+000	11	1.2951896E-001	5.2655139E-004	4.294048845379924E-006	-5.8283542E-005	3.8319244E-003	1.3579936E-003	4.0654386E-003	1.9513790E+001	3.894692221591768E-007
1.2590930E+005	2.3776378E+002	7.8850174E+001	2.5049744E+002	-1.8347193E+001	1.223549143443233E+001	-3.1644443E-001	7.1175135E-004	1.6030965E-002	1.5883946E-003	1.000000000000000E+000	11	1.2999168E-001	5.1893416E-004	4.625266129298122E-006	-1.3848604E-004	3.7891269E-003	1.2565972E-003	3.9920569E-003	1.8347193E+001	3.312172839181986E-007
1.1220494E+005	2.4330075E+002	7.5589279E+001	2.5477243E+002	-1.7259104E+001	1.283148938274826E+001	-3.1644067E-001	4.1183372E-004	1.8764973E-002	1.6518229E-003	1.000000000000000E+000	11	1.2988357E-001	5.0980231E-004	3.583272149508250E-006	-2.9889104E-004	3.7483366E-003	1.1645425E-003	3.9250716E-003	1.7259104E+001	-1.041993979789872E-006
1.0000371E+005	2.4840863E+002	7.2349907E+001	2.5873029E+002	-1.6238390E+001	1.342748783776187E+001	-3.1638861E-001	6.5240200E-004	2.1997130E-002	1.7200753E-003	1.000000000000000E+000	11	1.2987247E-001	5.0196087E-004	4.402439963292434E-006	-6.1970105E-004	3.7108394E-003	1.0807953E-003	3.8650287E-003	1.6238390E+001	8.191678137841837E-007
8.9129305E+004	2.5322871E+002	6.9215569E+001	2.6251776E+002	-1.5287375E+001	1.402448874610127E+001	-3.1636319E-001	6.5090857E-004	2.5798582E-002	1.7934366E-003	1.000000000000000E+000	11	1.2965949E-001	4.9390749E-004	5.455340151448682E-006	2.6252642E-004	3.6744771E-003	1.0043530E-003	3.8092660E-003	1.5287375E+001	1.052900188156249E-006
7.9433273E+004	2.5763651E+002	6.6159363E+001	2.6599554E+002	-1.4401994E+001	1.461947917434736E+001	-3.1630972E-001	7.2929374E-004	3.0284917E-002	1.8735284E-003	1.000000000000000E+000	11	1.2958819E-001	4.8718179E-004	5.771616407309517E-006	1.8232394E-004	3.6413185E-003	9.3506678E-004	3.7594615E-003	1.4401994E+001	3.162762558608343E-007
7.0794977E+004	2.6175107E+002	6.3271946E+001	2.6928973E+002	-1.3589184E+001	1.521548856268055E+001	-3.1631330E-001	6.7834335E-004	3.5530921E-002	1.9615043E-003	1.000000000000000E+000	11	1.2937264E-001	4.8042173E-004	6.714481966688052E-006	-5.8283542E-005	3.6095153E-003	8.7251241E-004	3.7134725E-003	1.3589184E+001	9.428655593785356E-007
6.3093828E+004	2.6552911E+002	6.0551270E+001	2.7234567E+002	-1.2846064E+001	1.567548842451652E+001	-3.1631994E-001	6.6957250E-004	4.1659113E-002	2.0592806E-003	1.000000000000000E+000	11	1.4066382E-001	5.1649002E-004	7.178611839490865E-006	1.0212145E-004	3.5799022E-003	8.1636105E-004	3.6718042E-003	1.2846064E+001	4.641298728028130E-007
5.6237012E+004	2.6905261E+002	5.7992371E+001	2.7523157E+002	-1.2163608E+001	1.627049709277344E+001	-3.1630212E-001	5.8764045E-004	4.8800811E-002	2.1665678E-003	1.000000000000000E+000	11	1.3054232E-001	4.7429997E-004	6.331400860169904E-006	-6.9990352E-004	3.5517362E-003	7.6555146E-004	3.6333043E-003	1.2163608E+001	-8.472109793209614E-007
5.0122477E+004	2.7225720E+002	5.5683022E+001	2.7789313E+002	-1.1558928E+001	1.672947316788486E+001	-3.1630322E-001	5.5553985E-004	5.7024937E-002	2.2895746E-003	1.000000000000000E+000	11	1.3975242E-001	5.0289987E-004	6.799079410486027E-006	3.4272892E-004	3.5255249E-003	7.2105299E-004	3.5985056E-003	1.1558928E+001	4.676785503161230E-007
4.4666715E+004	2.7531314E+002	5.3576488E+001	2.8047775E+002	-1.1012239E+001	1.732549164953525E+001	-3.1628644E-001	6.5557484E-004	6.6506162E-002	2.4266855E-003	1.000000000000000E+000	11	1.3001549E-001	4.6355010E-004	7.026977749357077E-006	1.0212145E-004	3.4996944E-003	6.8104750E-004	3.5653452E-003	1.1012239E+001	2.278983388710502E-007
3.9814063E+004	2.7805026E+002	5.1628700E+001	2.8280289E+002	-1.0518950E+001	1.778548881804454E+001	-3.1628254E-001	6.2104804E-004	7.7427007E-002	2.5805195E-003	1.000000000000000E+000	11	1.3713655E-001	4.8491920E-004	7.308573307673214E-006	-5.8283542E-005	3.4766074E-003	6.4554054E-004	3.5360318E-003	1.0518950E+001	2.815955583161366E-007
3.5480996E+004	2.8069107E+002	4.9972736E+001	2.8510480E+002	-1.0094864E+001	1.838147676640074E+001	-3.1626895E-001	6.6266680E-004	8.9761727E-002	2.7577088E-003	1.000000000000000E+000	11	1.2961003E-001	4.5460486E-004	7.950153459419704E-006	2.1918953E-005	3.4531825E-003	6.1478611E-004	3.5074821E-003	1.0094864E+001	6.415801517464897E-007
3.1621143E+004	2.8313477E+002	4.8521305E+001	2.8726227E+002	-9.7244167E+000	1.884147846823907E+001	-3.1630740E-001	5.4172927E-004	1.0373137E-001	2.9594968E-003	1.000000000000000E+000	11	1.3484387E-001	4.6941033E-004	8.232455385650004E-006	2.1918953E-005	3.4311209E-003	5.8799726E-004	3.4811394E-003	9.7244167E+000	2.823019262303009E-007
2.8188096E+004	2.8537778E+002	4.7314899E+001	2.8927353E+002	-9.4138575E+000	1.930148465008824E+001	-3.1629544E-001	5.1466760E-004	1.1933187E-001	3.1925295E-003	1.000000000000000E+000	11	1.3941702E-001	4.8195571E-004	7.978964590237915E-006	1.0212145E-004	3.4103799E-003	5.6543219E-004	3.4569358E-003	9.4138575E+000	-2.534907954120891E-007
2.5116910E+004	2.8760452E+002	4.6421829E+001	2.9132687E+002	-9.1689491E+000	1.989849566508201E+001	-3.1627598E-001	5.9977168E-004	1.3649969E-001	3.4658923E-003	1.000000000000000E+000	11	1.2953615E-001	4.4464195E-004	7.478484456074916E-006	-2.1868854E-004	3.3887117E-003	5.4696703E-004	3.4325705E-003	9.1689491E+000	-5.004801341629995E-007
2.2389027E+004	2.8970346E+002	4.5751095E+001	2.9329382E+002	-8.9742556E+000	2.035849184697145E+001	-3.1627288E-001	6.0779712E-004	1.5537582E-001	3.7807727E-003	1.000000000000000E+000	11	1.3258108E-001	4.5204186E-004	7.189537898892821E-006	-2.9889104E-004	3.3678121E-003	5.3185795E-004	3.4095501E-003	8.9742556E+000	-2.889465571820944E-007
1.9948783E+004	2.9161984E+002	4.5355690E+001	2.9512585E+002	-8.8403959E+000	2.081849362878711E+001	-3.1626803E-001	5.7252328E-004	1.7590247E-001	4.1545215E-003	1.000000000000000E+000	11	1.3513817E-001	4.5790014E-004	6.942386867447769E-006	2.1918953E-005	3.3481317E-003	5.2073557E-004	3.3883848E-003	8.8403959E+000	-2.471510314450521E-007
1.7786895E+004	2.9342258E+002	4.5237732E+001	2.9688931E+002	-8.7644348E+000	2.127848655733396E+001	-3.1627902E-001	5.8465422E-004	1.9779676E-001	4.5923153E-003	1.000000000000000E+000	11	1.3721779E-001	4.6218501E-004	6.895419140187894E-006	-2.9889104E-004	3.3289280E-003	5.1322964E-004	3.3682587E-003	8.7644348E+000	-4.696772725987486E-008
1.5847686E+004	2.9517719E+002	4.5429520E+001	2.9865265E+002	-8.7495079E+000	2.173848764583818E+001	-3.1628060E-001	5.8129494E-004	2.2106305E-001	5.1151654E-003	1.000000000000000E+000	11	1.3895196E-001	4.6526277E-004	6.624573119203786E-006	1.0212145E-004	3.3094059E-003	5.0933717E-004	3.3483715E-003	8.7495079E+000	-2.708460209841080E-007
1.4121879E+004	2.9688101E+002	4.5904114E+001	3.0040894E+002	-8.7895403E+000	2.219848582768464E+001	-3.1629208E-001	5.5759278E-004	2.4551387E-001	5.7326253E-003	1.000000000000000E+000	11	1.4036459E-001	4.6724503E-004	6.970778250293936E-006	1.8232394E-004	3.2897033E-003	5.0865806E-004	3.3287958E-003	8.7895403E+000	3.462051310901491E-007
1.2590932E+004	2.9858115E+002	4.6764675E+001	3.0222116E+002	-8.9015198E+000	2.279347806927399E+001	-3.1627479E-001	5.5348623E-004	2.7029893E-001	6.4718798E-003	1.000000000000000E+000	11	1.2935311E-001	4.2800812E-004	7.270233862460979E-006	1.0212145E-004	3.2689827E-003	5.1199790E-004	3.3088352E-003	8.9015198E+000	2.994556121670431E-007
1.1217711E+004	3.0017581E+002	4.7913883E+001	3.0397574E+002	-9.0690136E+000	2.325247918438981E+001	-3.1626791E-001	5.9827795E-004	2.9611102E-001	7.3569776E-003	1.000000000000000E+000	11	1.3018534E-001	4.2827541E-004	7.749392157986424E-006	-5.3949852E-004	3.2486119E-003	5.1854149E-004	3.2897363E-003	9.0690136E+000	4.791582955254455E-007
1.0002229E+004	3.0178723E+002	4.9440109E+001	3.0581018E+002	-9.3038006E+000	2.371248304625624E+001	-3.1626755E-001	5.8390695E-004	3.2184285E-001	8.4119923E-003	1.000000000000000E+000	11	1.3082218E-001	4.2778885E-004	8.252327567532322E-006	1.8232394E-004	3.2269855E-003	5.2865891E-004	3.2700023E-003	9.3038006E+000	5.029354095458974E-007
8.9149297E+003	3.0344992E+002	5.1395390E+001	3.0777158E+002	-9.6129732E+000	2.419491250920692E+001	-3.1624526E-001	6.2030065E-004	3.4735858E-001	9.6865548E-003	1.000000000000000E+000	11	1.3136338E-001	4.2682103E-004	8.095190849100213E-006	-5.8283542E-005	3.2035392E-003	5.4258422E-004	3.2491630E-003	9.6129732E+000	-1.571367184321081E-007
7.9439976E+003	3.0506610E+002	5.3716618E+001	3.0975928E+002	-9.9863806E+000	2.472099546750542E+001	-3.1625232E-001	6.0145062E-004	3.7296867E-001	1.1216079E-002	1.000000000000000E+000	11	1.3176337E-001	4.2537344E-004	8.305528155807730E-006	-5.3949852E-004	3.1794012E-003	5.5983500E-004	3.2283133E-003	9.9863806E+000	2.103373067075164E-007
7.0822334E+003	3.0670267E+002	5.6456516E+001	3.1185553E+002	-1.0430004E+001	2.529786242826958E+001	-3.1623274E-001	6.0443708E-004	3.9804837E-001	1.3045390E-002	1.000000000000000E+000	11	1.3207069E-001	4.2349959E-004	8.541573906663366E-006	-3.7909354E-004	3.1536296E-003	5.8050657E-004	3.2066130E-003	1.0430004E+001	2.360457508556364E-007
6.3077344E+003	3.0841727E+002	5.9722191E+001	3.1414639E+002	-1.0959170E+001	2.593155531163211E+001	-3.1622976E-001	4.8555198E-004	4.2248473E-001	1.5269271E-002	1.000000000000000E+000	11	1.3233054E-001	4.2123845E-004	8.260214842398353E-006	4.2293142E-004	3.1251765E-003	6.0516188E-004	3.1832294E-003	1.0959170E+001	-2.813590642650130E-007
5.6210552E+003	3.1013028E+002	6.3482456E+001	3.1656091E+002	-1.1568416E+001	2.663226041159942E+001	-3.1622294E-001	5.0589489E-004	4.4601405E-001	1.7936653E-002	1.000000000000000E+000	11	1.3252151E-001	4.1862880E-004	8.007654916634136E-006	3.4272892E-004	3.0947786E-003	6.3348917E-004	3.1589498E-003	1.1568416E+001	-2.525599257642170E-007
5.0116035E+003	3.1189694E+002	6.7762611E+001	3.1917310E+002	-1.2257570E+001	2.739266855443566E+001	-3.1622139E-001	4.3385493E-004	4.6865502E-001	2.1124236E-002	1.000000000000000E+000	11	1.3266651E-001	4.1565695E-004	7.811562793943772E-006	2.6252642E-004	3.0616713E-003	6.6517759E-004	3.1330963E-003	1.2257570E+001	-1.960921226903637E-007
4.4664292E+003	3.1380307E+002	7.2623672E+001	3.2209714E+002	-1.3030596E+001	2.815269909720519E+001	-3.1622359E-001	4.5270476E-004	4.9066094E-001	2.4943888E-002	1.000000000000000E+000	11	1.3278174E-001	4.1224129E-004	7.746305083691064E-006	2.6252642E-004	3.0247080E-003	7.0001034E-004	3.1046534E-003	1.3030596E+001	-6.525771025270820E-008
3.9812742E+003	3.1580664E+002	7.8090714E+001	3.2531830E+002	-1.3889138E+001	2.891270721330511E+001	-3.1624368E-001	4.1911093E-004	5.1191592E-001	2.9497176E-002	1.000000000000000E+000	11	1.3287391E-001	4.0844278E-004	8.157575531057470E-006	-3.7909354E-004	2.9840376E-003	7.3787430E-004	3.0739126E-003	1.3889138E+001	4.112704473664059E-007
3.5465955E+003	3.1793857E+002	8.4369598E+001	3.2894250E+002	-1.4861737E+001	2.967294807606959E+001	-3.1622234E-001	4.5867663E-004	5.3189087E-001	3.4990847E-002	1.000000000000000E+000	11	1.3293709E-001	4.0413474E-004	8.293770002644225E-006	-5.8283542E-005	2.9383481E-003	7.7973318E-004	3.0400450E-003	1.4861737E+001	1.361944715867546E-007
3.1610112E+003	3.2020139E+002	9.1301712E+001	3.3296387E+002	-1.5914886E+001	3.043270720549481E+001	-3.1622964E-001	4.2265680E-004	5.5146146E-001	4.1464727E-002	1.000000000000000E+000	11	1.3298737E-001	3.9940479E-004	8.475879928126232E-006	-3.7909354E-004	2.8882115E-003	8.2354003E-004	3.0033288E-003	1.5914886E+001	1.821099254820073E-007
2.8172952E+003	3.2263617E+002	9.9027725E+001	3.3749161E+002	-1.7062984E+001	3.119293492159341E+001	-3.1622446E-001	5.1858538E-004	5.7046759E-001	4.9115505E-002	1.000000000000000E+000	11	1.3301262E-001	3.9412128E-004	8.903014112973728E-006	5.8333640E-004	2.8326118E-003	8.6942239E-004	2.9630365E-003	1.7062984E+001	4.271341848474963E-007
2.5108032E+003	3.2536877E+002	1.0771516E+002	3.4273517E+002	-1.8317415E+001	3.195268906436104E+001	-3.1624570E-001	4.1332500E-004	5.8847857E-001	5.8125529E-002	1.000000000000000E+000	11	1.3303334E-001	3.8815197E-004	9.151680983253754E-006	-4.5929602E-004	2.7698646E-003	9.1697922E-004	2.9177046E-003	1.8317415E+001	2.486668702800259E-007
2.2378516E+003	3.2825885E+002	1.1734411E+002	3.4860223E+002	-1.9670664E+001	3.271294632711215E+001	-3.1622601E-001	4.3945349E-004	6.0607666E-001	6.8673603E-002	1.000000000000000E+000	11	1.3304198E-001	3.8164409E-004	8.958008655735587E-006	-2.1868854E-004	2.7011964E-003	9.6560823E-004	2.8685990E-003	1.9670664E+001	-1.936723275181669E-007
1.9956389E+003	3.3142126E+002	1.2783897E+002	3.5522226E+002	-2.1093100E+001	3.372369421514304E+001	-3.1621891E-001	8.7965047E-004	6.2384248E-001	8.0798090E-002	1.000000000000000E+000	12	1.3638079E-001	3.8393086E-004	9.152531468233468E-006	3.4272892E-004	2.6265157E-003	1.0131247E-003	2.8151388E-003	2.1093100E+001	1.945228124978806E-007
1.7782927E+003	3.3487781E+002	1.3971268E+002	3.6285367E+002	-2.2646137E+001	3.448394635791192E+001	-3.1623125E-001	8.0040307E-004	6.4059132E-001	9.4970703E-002	1.000000000000000E+000	12	1.3633716E-001	3.7573592E-004	9.166179658665593E-006	1.8232394E-004	2.5434508E-003	1.0611402E-003	2.7559318E-003	2.2646137E+001	1.364819043212473E-008
1.5855076E+003	3.3869366E+002	1.5278223E+002	3.7155862E+002	-2.4279785E+001	3.524367596734373E+001	-3.1623197E-001	8.4976910E-004	6.5702057E-001	1.1108872E-001	1.000000000000000E+000	12	1.3623205E-001	3.6665020E-004	9.065110204696086E-006	1.8232394E-004	2.4533097E-003	1.1066700E-003	2.6913653E-003	2.4279785E+001	-1.010694539695069E-007
1.4118373E+003	3.4289896E+002	1.6738010E+002	3.8157016E+002	-2.6018503E+001	3.600521413682145E+001	-3.1622940E-001	8.6595054E-004	6.7349082E-001	1.2959567E-001	1.000000000000000E+000	12	1.3607633E-001	3.5662204E-004	9.144955318303093E-006	1.0212145E-004	2.3551434E-003	1.1496219E-003	2.6207501E-003	2.6018503E+001	7.984511360700681E-008
1.2587914E+003	3.4757736E+002	1.8333990E+002	3.9296762E+002	-2.7810724E+001	3.676495110624819E+001	-3.1623015E-001	8.0337026E-004	6.8961918E-001	1.5011007E-001	1.000000000000000E+000	12	1.3588984E-001	3.4580418E-004	9.002665383330573E-006	-1.3848604E-004	2.2508053E-003	1.1872535E-003	2.5447388E-003	2.7810724E+001	-1.422899349725196E-007
1.1217948E+003	3.5273547E+002	2.0102567E+002	4.0599707E+002	-2.9679026E+001	3.752342383554787E+001	-3.1622562E-001	8.9221040E-004	7.0575702E-001	1.7302641E-001	1.000000000000000E+000	12	1.3567801E-001	3.3418470E-004	9.389746448076848E-006	2.6252642E-004	2.1399485E-003	1.2195671E-003	2.4630721E-003	2.9679026E+001	3.870810647462750E-007
1.0003201E+003	3.5845847E+002	2.2036266E+002	4.2077567E+002	-3.1581160E+001	3.828269768501923E+001	-3.1622565E-001	8.7847345E-004	7.2200990E-001	1.9802405E-001	1.000000000000000E+000	12	1.3544978E-001	3.2190498E-004	9.421530014600851E-006	3.4272892E-004	2.0245924E-003	1.2446201E-003	2.3765634E-003	3.1581160E+001	3.178356652400269E-008
8.9142657E+002	3.6479810E+002	2.4178575E+002	4.3765054E+002	-3.3536152E+001	3.904145633432199E+001	-3.1622058E-001	8.7403087E-004	7.3842067E-001	2.2537737E-001	1.000000000000000E+000	12	1.3521551E-001	3.0895771E-004	9.448671477520999E-006	-5.8283542E-005	1.9045729E-003	1.2623382E-003	2.2849280E-003	3.3536152E+001	2.714146292014880E-008
7.9423773E+002	3.7181744E+002	2.6529718E+002	4.5676120E+002	-3.5508411E+001	3.980096178376698E+001	-3.1622985E-001	8.0881891E-004	7.5533044E-001	2.5481433E-001	1.000000000000000E+000	12	1.3498148E-001	2.9551872E-004	9.820955311651536E-006	-5.8283542E-005	1.7821790E-003	1.2716107E-003	2.1893277E-003	3.5508411E+001	3.722838341305365E-007
7.0750946E+002	3.7962177E+002	2.9116245E+002	4.7842267E+002	-3.7487495E+001	4.056344187332434E+001	-3.1622624E-001	8.4539974E-004	7.7259606E-001	2.8615394E-001	1.000000000000000E+000	12	1.3474126E-001	2.8163646E-004	9.731279798062234E-006	-8.6030853E-004	1.6585464E-003	1.2720724E-003	2.0902019E-003	3.7487495E+001	-8.967551358930175E-008
6.3100964E+002	3.8813043E+002	3.1927219E+002	5.0257333E+002	-3.9440372E+001	4.132145942930947E+001	-3.1622112E-001	8.6964353E-004	7.8999263E-001	3.1882057E-001	1.000000000000000E+000	12	1.3451964E-001	2.6766170E-004	9.700708796608119E-006	1.0212145E-004	1.5366635E-003	1.2640440E-003	1.9897593E-003	3.9440372E+001	-3.057100145411503E-008
5.6233929E+002	3.9759497E+002	3.5018030E+002	5.2981885E+002	-4.1371868E+001	4.207790234527783E+001	-3.1622377E-001	8.6605881E-004	8.0822074E-001	3.5306820E-001	1.000000000000000E+000	12	1.3430902E-001	2.5349989E-004	9.798686404518068E-006	-5.3949852E-004	1.4164004E-003	1.2474896E-003	1.8874375E-003	4.1371868E+001	9.797760790994921E-008
5.0144415E+002	4.0793594E+002	3.8392752E+002	5.6018933E+002	-4.3263390E+001	4.283519190122024E+001	-3.1622571E-001	8.6704723E-004	8.2670069E-001	3.8830870E-001	1.000000000000000E+000	12	1.3410905E-001	2.3939951E-004	9.907882889870152E-006	2.1918953E-005	1.2999370E-003	1.2234313E-003	1.7851108E-003	4.3263390E+001	1.091964853520841E-007
4.4685895E+002	4.1936639E+002	4.2110910E+002	5.9430719E+002	-4.5118801E+001	4.359091081711813E+001	-3.1622696E-001	8.5428124E-004	8.4577543E-001	4.2464140E-001	1.000000000000000E+000	12	1.3392338E-001	2.2534370E-004	1.009449350202340E-005	-5.8283542E-005	1.1873306E-003	1.1922646E-003	1.6826316E-003	4.5118801E+001	1.866106121532452E-007
3.9808920E+002	4.3185019E+002	4.6190884E+002	6.3234039E+002	-4.6926231E+001	4.435372373338032E+001	-3.1622562E-001	8.7273959E-004	8.6553264E-001	4.6184278E-001	1.000000000000000E+000	12	1.3375510E-001	2.1152390E-004	1.016317292899071E-005	1.0212145E-004	1.0800186E-003	1.1551927E-003	1.5814267E-003	4.6926231E+001	6.867942696731373E-008
3.5465955E+002	4.4542435E+002	5.0657126E+002	6.7454968E+002	-4.8675072E+001	4.511293547609239E+001	-3.1622505E-001	8.0213393E-004	8.8586581E-001	4.9959853E-001	1.000000000000000E+000	12	1.3360474E-001	1.9806507E-004	1.043329730758089E-005	-3.7909354E-004	9.7891747E-004	1.1133011E-003	1.4824705E-003	4.8675072E+001	2.701243785901781E-007
3.1631586E+002	4.6014340E+002	5.5517590E+002	7.2107715E+002	-5.0347229E+001	4.586992228537565E+001	-3.1622505E-001	8.5484068E-004	9.0629292E-001	5.3723747E-001	1.000000000000000E+000	12	1.3348153E-001	1.8511408E-004	1.053097744611376E-005	5.8333640E-004	8.8497240E-004	1.0677441E-003	1.3868142E-003	5.0347229E+001	9.768013853287487E-008
2.8189429E+002	4.7601181E+002	6.0868427E+002	7.7271198E+002	-5.1973381E+001	4.662543325455044E+001	-3.1622791E-001	8.5605343E-004	9.2755949E-001	5.7556003E-001	1.000000000000000E+000	12	1.3335826E-001	1.7258468E-004	1.070564540207447E-005	-5.8283542E-005	7.9722784E-004	1.0194285E-003	1.2941433E-003	5.1973381E+001	1.746679559607100E-007
2.5104436E+002	4.9337589E+002	6.6781000E+002	8.3029510E+002	-5.3543129E+001	4.738191251718672E+001	-3.1622821E-001	8.4181275E-004	9.4932902E-001	6.1412621E-001	1.000000000000000E+000	12	1.3325529E-001	1.6049147E-004	1.070821777525109E-005	-3.7909354E-004	7.1567023E-004	9.6869696E-004	1.2043910E-003	5.3543129E+001	2.572373176615086E-009
2.2392513E+002	5.1165234E+002	7.3186920E+002	8.9298413E+002	-5.5042465E+001	4.814471140677051E+001	-3.1622583E-001	8.4662763E-004	9.7114444E-001	6.5232390E-001	1.000000000000000E+000	12	1.3317525E-001	1.4913507E-004	1.073609827551667E-005	3.4272892E-004	6.4163422E-004	9.1779564E-004	1.1198408E-003	5.5042465E+001	2.788050026558397E-008
1.9955299E+002	5.3156555E+002	8.0278400E+002	9.6282092E+002	-5.6489361E+001	4.890622853624518E+001	-3.1622976E-001	8.5407397E-004	9.9348927E-001	6.9066834E-001	1.000000000000000E+000	12	1.3309462E-001	1.3823404E-004	1.085752325717153E-005	-3.7909354E-004	5.7341071E-004	8.6597970E-004	1.0386148E-003	5.6489361E+001	1.214249816548557E-007
1.7778128E+002	5.5297711E+002	8.8099475E+002	1.0401613E+003	-5.7884598E+001	4.967424025273067E+001	-3.1622437E-001	8.9744822E-004	1.0161569E+000	7.2896403E-001	1.000000000000000E+000	12	1.3302457E-001	1.2788842E-004	1.110137615887571E-005	-1.3848604E-004	5.1109988E-004	8.1427669E-004	9.6138939E-004	5.7884598E+001	2.438529017041822E-007
1.5842838E+002	5.7593823E+002	9.6709467E+002	1.1256007E+003	-5.9224743E+001	5.044072583582602E+001	-3.1622019E-001	8.6786563E-004	1.0387671E+000	7.6680940E-001	1.000000000000000E+000	12	1.3297039E-001	1.1813283E-004	1.125329360837188E-005	5.0313392E-004	4.5457672E-004	7.6330884E-004	8.8841451E-004	5.9224743E+001	1.519174494961693E-007
1.4131134E+002	6.0067377E+002	1.0611837E+003	1.2193932E+003	-6.0488346E+001	5.119389725825749E+001	-3.1622422E-001	8.7458460E-004	1.0613352E+000	8.0379659E-001	1.000000000000000E+000	12	1.3292801E-001	1.0901161E-004	1.151743576918024E-005	-2.1868854E-004	4.0397191E-004	7.1367918E-004	8.2008005E-004	6.0488346E+001	2.641421608083559E-007
1.2584569E+002	6.2750830E+002	1.1666519E+003	1.3247050E+003	-6.1725479E+001	5.194940860077622E+001	-3.1622490E-001	8.5073191E-004	1.0840280E+000	8.4078461E-001	1.000000000000000E+000	12	1.3288380E-001	1.0031200E-004	1.161791715401584E-005	-1.3848604E-004	3.5758651E-004	6.6481828E-004	7.5488508E-004	6.1725479E+001	1.004813848356009E-007
1.1218996E+002	6.5636200E+002	1.2817053E+003	1.4399929E+003	-6.2882992E+001	5.269486879621400E+001	-3.1622815E-001	8.5634977E-004	1.1068225E+000	8.7686682E-001	1.000000000000000E+000	12	1.3285334E-001	9.2259717E-005	1.168892493772182E-005	-1.3848604E-004	3.1653568E-004	6.1811245E-004	6.9444784E-004	6.2882992E+001	7.100778370598481E-008
1.0003201E+002	6.8705206E+002	1.4090603E+003	1.5676388E+003	-6.4006325E+001	5.345467493898468E+001	-3.1621993E-001	8.3285180E-004	1.1291498E+000	9.1226017E-001	1.000000000000000E+000	12	1.3282195E-001	8.4727391E-005	1.184479471875440E-005	-1.3848604E-004	2.7957457E-004	5.7337346E-004	6.3790206E-004	6.4006325E+001	1.558697810325820E-007
8.9115974E+001	7.2124493E+002	1.5503737E+003	1.7099277E+003	-6.5051811E+001	5.422173278874834E+001	-3.1622222E-001	8.4763329E-004	1.1519356E+000	9.4699007E-001	1.000000000000000E+000	12	1.3280290E-001	7.7665798E-005	1.207028778389880E-005	-5.3949852E-004	2.4667624E-004	5.3025025E-004	5.8482005E-004	6.5051811E+001	2.254930651443915E-007
7.9415527E+001	7.5709570E+002	1.7064617E+003	1.8668705E+003	-6.6074860E+001	5.498621215837193E+001	-3.1621426E-001	8.6164981E-004	1.1744057E+000	9.8125720E-001	1.000000000000000E+000	12	1.3278198E-001	7.1125440E-005	1.219742243904006E-005	-2.1868854E-004	2.1723131E-004	4.8963021E-004	5.3565582E-004	6.6074860E+001	1.271346551412640E-007
7.0838745E+001	7.9693567E+002	1.8776361E+003	2.0397607E+003	-6.7001900E+001	5.573738312735804E+001	-3.1621897E-001	8.4948062E-004	1.1965692E+000	1.0139166E+000	1.000000000000000E+000	12	1.3276833E-001	6.5090149E-005	1.240716635420580E-005	1.0212145E-004	1.9154236E-004	4.5128714E-004	4.9025356E-004	6.7001900E+001	2.097439151657449E-007
6.3082302E+001	8.4043805E+002	2.0700815E+003	2.2341831E+003	-6.7903206E+001	5.651785220447346E+001	-3.1622279E-001	8.2312676E-004	1.2187796E+000	1.0463152E+000	1.000000000000000E+000	12	1.3275182E-001	5.9418508E-005	1.258074869235214E-005	-5.8283542E-005	1.6837135E-004	4.1471521E-004	4.4759089E-004	6.7903206E+001	1.735823381463389E-007
5.6241817E+001	8.8742151E+002	2.2799478E+003	2.4465647E+003	-6.8732574E+001	5.726233557311934E+001	-3.1621799E-001	8.5043203E-004	1.2411833E+000	1.0778847E+000	1.000000000000000E+000	12	1.3274124E-001	5.4256176E-005	1.280014579329105E-005	-2.1868854E-004	1.4825746E-004	3.8090046E-004	4.0873638E-004	6.8732574E+001	2.193971009389022E-007
5.0144413E+001	9.3792407E+002	2.5126401E+003	2.6819885E+003	-6.9530289E+001	5.801918904905324E+001	-3.1622246E-001	8.3382113E-004	1.2631860E+000	1.1086999E+000	1.000000000000000E+000	12	1.3272825E-001	4.9488746E-005	1.301068991034097E-005	-2.9889104E-004	1.3039287E-004	3.4931439E-004	3.7285767E-004	6.9530289E+001	2.105441170499222E-007
4.4671219E+001	9.9447192E+002	2.7721233E+003	2.9451047E+003	-7.0265053E+001	5.903521093734889E+001	-3.1622633E-001	8.8973239E-004	1.2852268E+000	1.1386844E+000	1.000000000000000E+000	13	1.3302487E-001	4.5168130E-005	1.313223892426521E-005	4.2293142E-004	1.1465447E-004	3.1960316E-004	3.3954650E-004	7.0265053E+001	1.215490139242470E-007
3.9808922E+001	1.0558123E+003	3.0583948E+003	3.2355090E+003	-7.0954414E+001	5.979773494692927E+001	-3.1622359E-001	8.9589157E-004	1.3072125E+000	1.1680139E+000	1.000000000000000E+000	13	1.3296461E-001	4.1095424E-005	1.337736097904255E-005	2.1918953E-005	1.0085594E-004	2.9215161E-004	3.0907037E-004	7.0954414E+001	2.451220547773384E-007
3.5465305E+001	1.1238773E+003	3.3762542E+003	3.5583975E+003	-7.1588585E+001	6.054814252918004E+001	-3.1621829E-001	8.9897320E-004	1.3291724E+000	1.1965826E+000	1.000000000000000E+000	13	1.3291803E-001	3.7353340E-005	1.348060027368431E-005	-5.8283542E-005	8.8758519E-005	2.6664056E-004	2.8102539E-004	7.1588585E+001	1.032392946417534E-007
3.1629551E+001	1.1968547E+003	3.7241758E+003	3.9117703E+003	-7.2183922E+001	6.127243163026287E+001	-3.1622288E-001	8.9542492E-004	1.3511293E+000	1.2246461E+000	1.000000000000000E+000	13	1.3287039E-001	3.3966819E-005	1.364572574319027E-005	2.6252642E-004	7.8215860E-005	2.4337921E-004	2.5563873E-004	7.2183922E+001	1.651254695059678E-007
2.8170074E+001	1.2788706E+003	4.1142593E+003	4.3084380E+003	-7.2732735E+001	6.207774508188595E+001	-3.1621799E-001	9.0099062E-004	1.3732210E+000	1.2522299E+000	1.000000000000000E+000	13	1.3283725E-001	3.0831881E-005	1.392342061852246E-005	4.2293142E-004	6.8894886E-005	2.2164194E-004	2.3210268E-004	7.2732735E+001	2.776948753321903E-007
2.5104435E+001	1.3689584E+003	4.5430283E+003	4.7448027E+003	-7.3230782E+001	6.283392165112309E+001	-3.1621936E-001	8.9822256E-004	1.3954821E+000	1.2793189E+000	1.000000000000000E+000	13	1.3280676E-001	2.7989945E-005	1.413261528313039E-005	1.0212145E-004	6.0807048E-005	2.0179441E-004	2.1075692E-004	7.3230782E+001	2.091946646079221E-007
2.2385387E+001	1.4667515E+003	5.0153667E+003	5.2254438E+003	-7.3698364E+001	6.352045155034284E+001	-3.1622097E-001	8.9722016E-004	1.4175972E+000	1.3059058E+000	1.000000000000000E+000	13	1.3278572E-001	2.5411377E-005	1.423842201384506E-005	-1.3848604E-004	5.3716798E-005	1.8367766E-004	1.9137131E-004	7.3698364E+001	1.058067307146760E-007
1.9955299E+001	1.5755308E+003	5.5403721E+003	5.7600366E+003	-7.4125694E+001	6.428221606658190E+001	-3.1622157E-001	9.0771518E-004	1.4395374E+000	1.3318347E+000	1.000000000000000E+000	13	1.3276809E-001	2.3049870E-005	1.445762532338939E-005	2.1918953E-005	4.7487181E-005	1.6698924E-004	1.7361001E-004	7.4125694E+001	2.192033095443292E-007
1.7796129E+001	1.6943845E+003	6.1187515E+003	6.3490205E+003	-7.4521698E+001	6.512655146667385E+001	-3.1622225E-001	9.0555754E-004	1.4616109E+000	1.3575128E+000	1.000000000000000E+000	13	1.3275158E-001	2.0908987E-005	1.466207629385710E-005	3.4272892E-004	4.2033793E-005	1.5179216E-004	1.5750460E-004	7.4521698E+001	2.044509704677089E-007
1.5857576E+001	1.8274575E+003	6.7616587E+003	7.0042578E+003	-7.4876137E+001	6.584895510098431E+001	-3.1621701E-001	9.0416695E-004	1.4843286E+000	1.3832871E+000	1.000000000000000E+000	13	1.3274220E-001	1.8951643E-005	1.483711524079344E-005	1.0212145E-004	3.7249712E-005	1.3782531E-004	1.4277030E-004	7.4876137E+001	1.750389469363344E-007
1.4118974E+001	1.9781908E+003	7.4780332E+003	7.7352583E+003	-7.5182747E+001	6.665126905907528E+001	-3.1621730E-001	8.9828571E-004	1.5074039E+000	1.4088175E+000	1.000000000000000E+000	13	1.3272995E-001	1.7159084E-005	1.499300294371379E-005	-1.3848604E-004	3.3061195E-005	1.2497921E-004	1.2927817E-004	7.5182747E+001	1.558877029203565E-007
1.2600808E+001	2.1374583E+003	8.2564209E+003	8.5286113E+003	-7.5485672E+001	6.754183648807521E+001	-3.1621900E-001	9.0362655E-004	1.5297832E+000	1.4336956E+000	1.000000000000000E+000	13	1.3272443E-001	1.5562257E-005	1.526765604671669E-005	2.1918953E-005	2.9386039E-005	1.1351027E-004	1.1725238E-004	7.5485672E+001	2.746531030028968E-007
1.1224856E+001	2.3177258E+003	9.1285947E+003	9.4182324E+003	-7.5753784E+001	6.822593025388778E+001	-3.1622353E-001	9.0244412E-004	1.5532286E+000	1.4591651E+000	1.000000000000000E+000	13	1.3271548E-001	1.4091336E-005	1.536635932217703E-005	2.1918953E-005	2.6129032E-005	1.0291179E-004	1.0617704E-004	7.5753784E+001	9.870327546034009E-008
1.0003201E+001	2.5196917E+003	1.0094688E+004	1.0404401E+004	-7.5985023E+001	6.898669495671493E+001	-3.1620958E-001	9.0355083E-004	1.5761163E+000	1.4836786E+000	1.000000000000000E+000	13	1.3271323E-001	1.2755489E-005	1.565976220666077E-005	-1.3848604E-004	2.3276258E-005	9.3252122E-005	9.6113174E-005	7.5985023E+001	2.934028844837383E-007
8.9183798E+000	2.7401658E+003	1.1154798E+004	1.1486428E+004	-7.6198624E+001	6.983102059678640E+001	-3.1621829E-001	8.9565938E-004	1.5998250E+000	1.5087800E+000	1.000000000000000E+000	13	1.3270870E-001	1.1553522E-005	1.578543613701630E-005	1.8232394E-004	2.0768579E-005	8.4545740E-005	8.7059270E-005	7.6198624E+001	1.256739303555349E-007
7.9395342E+000	2.9918101E+003	1.2343381E+004	1.2700786E+004	-7.6375305E+001	7.076972125473549E+001	-3.1622478E-001	8.8990974E-004	1.6240185E+000	1.5339035E+000	1.000000000000000E+000	13	1.3270116E-001	1.0448263E-005	1.610612471515272E-005	-2.9889104E-004	1.8546963E-005	7.6519638E-005	7.8735284E-005	7.6375305E+001	3.206885781364215E-007
7.0765405E+000	3.2658455E+003	1.3637257E+004	1.4022857E+004	-7.6532463E+001	7.132804112124722E+001	-3.1623682E-001	8.8463601E-004	1.6491954E+000	1.5597433E+000	1.000000000000000E+000	13	1.3270237E-001	9.4632896E-006	1.625077425312267E-005	5.8333640E-004	1.6608197E-005	6.9351205E-005	7.1312141E-005	7.6532463E+001	1.446495379699500E-007
6.3105822E+000	3.5846384E+003	1.5174072E+004	1.5591731E+004	-7.6708443E+001	7.194820995067130E+001	-3.1620854E-001	8.4549061E-004	1.6620671E+000	1.5742154E+000	1.000000000000000E+000	13	1.3270739E-001	8.5113952E-006	1.640758294845535E-005	2.6252642E-004	1.4745402E-005	6.2418520E-005	6.4136562E-005	7.6708443E+001	1.568086953326805E-007
5.6205034E+000	3.9376257E+003	1.6709037E+004	1.7166736E+004	-7.6739700E+001	7.263467448998563E+001	-3.1623110E-001	8.6419255E-004	1.6947027E+000	1.6055391E+000	1.000000000000000E+000	13	1.3269867E-001	7.7299883E-006	1.654006003002986E-005	2.6252642E-004	1.3361618E-005	5.6699071E-005	5.8252190E-005	7.6739700E+001	1.324770815745071E-007
5.0144415E+000	4.3289209E+003	1.8436457E+004	1.8937859E+004	-7.6786186E+001	7.339218511260697E+001	-3.1620988E-001	8.7337743E-004	1.7215518E+000	1.6315984E+000	1.000000000000000E+000	13	1.3269375E-001	7.0067977E-006	1.665039998069066E-005	1.8232394E-004	1.2070297E-005	5.1406223E-005	5.2804280E-005	7.6786186E+001	1.103399506607991E-007
4.4693937E+000	4.7253682E+003	2.0437904E+004	2.0977061E+004	-7.6981621E+001	7.423350803254289E+001	-3.1623122E-001	9.1382931E-004	1.7423490E+000	1.6539357E+000	1.000000000000000E+000	13	1.3269879E-001	6.3258999E-006	1.685419893286335E-005	-5.8283542E-005	1.0738569E-005	4.6445872E-005	4.7671121E-005	7.6981621E+001	2.037989521726948E-007
3.9778514E+000	5.2380776E+003	2.2551932E+004	2.3152258E+004	-7.6923912E+001	7.517016325038276E+001	-3.1622931E-001	9.0811419E-004	1.7741398E+000	1.6833274E+000	1.000000000000000E+000	13	1.3269597E-001	5.7314487E-006	1.718422171491461E-005	5.0313392E-004	9.7720413E-006	4.2072377E-005	4.3192333E-005	7.6923912E+001	3.300227820512515E-007
3.5511365E+000	5.7436196E+003	2.4927166E+004	2.5580320E+004	-7.7024597E+001	7.621141841981444E+001	-3.1621948E-001	8.9049002E-004	1.7979594E+000	1.7073152E+000	1.000000000000000E+000	13	1.3269386E-001	5.1873417E-006	1.742487258251296E-005	-2.1868854E-004	8.7775579E-006	3.8094386E-005	3.9092552E-005	7.7024597E+001	2.406508675983575E-007
3.1603966E+000	6.3523853E+003	2.7533113E+004	2.8256418E+004	-7.7008171E+001	7.737423546172795E+001	-3.1622642E-001	8.8948780E-004	1.8290401E+000	1.7365994E+000	1.000000000000000E+000	13	1.3269398E-001	4.6960649E-006	1.761707185960025E-005	-2.9889104E-004	7.9561423E-006	3.4484274E-005	3.5390189E-005	7.7008171E+001	1.921992770872845E-007
2.8183618E+000	7.0544233E+003	3.0421982E+004	3.1229184E+004	-7.6944664E+001	7.866963896329980E+001	-3.1621543E-001	8.8719180E-004	1.8562475E+000	1.7615283E+000	1.000000000000000E+000	13	1.3269223E-001	4.2489819E-006	1.803815983685086E-005	-2.1868854E-004	7.2333619E-006	3.1193653E-005	3.2021329E-005	7.6944664E+001	4.210879772506116E-007
2.5136740E+000	7.7362910E+003	3.3641215E+004	3.4519293E+004	-7.7049156E+001	8.055967057307134E+001	-3.1621698E-001	8.8874908E-004	1.8820863E+000	1.7875535E+000	1.000000000000000E+000	14	1.3271132E-001	3.8445551E-006	1.848839261038514E-005	1.0212145E-004	6.4924570E-006	2.8232405E-005	2.8969307E-005	7.7049156E+001	4.502327735342776E-007
2.2398219E+000	8.6149678E+003	3.7088809E+004	3.8076207E+004	-7.6923256E+001	8.217441262307693E+001	-3.1621611E-001	8.7896694E-004	1.9158599E+000	1.8177835E+000	1.000000000000000E+000	14	1.3270482E-001	3.4852428E-006	1.875760798428776E-005	1.0212145E-004	5.9421873E-006	2.5582061E-005	2.6263120E-005	7.6923256E+001	2.692153739026251E-007
1.9970604E+000	9.6097549E+003	4.0969598E+004	4.2081531E+004	-7.6799438E+001	8.397867217546445E+001	-3.1621015E-001	8.8549772E-004	1.9452131E+000	1.8437734E+000	1.000000000000000E+000	14	1.3270226E-001	3.1534562E-006	1.931236870906418E-005	-5.8283542E-005	5.4266184E-006	2.3135486E-005	2.3763394E-005	7.6799438E+001	5.547607247764171E-007
1.7796129E+000	1.0623710E+004	4.5275480E+004	4.6505188E+004	-7.6794670E+001	8.599695992463967E+001	-3.1620917E-001	8.8736118E-004	1.9752929E+000	1.8722112E+000	1.000000000000000E+000	14	1.3269891E-001	2.8534216E-006	1.975556100181681E-005	-1.3848604E-004	4.9121709E-006	2.0934389E-005	2.1502978E-005	7.6794670E+001	4.431922927526327E-007
1.5846854E+000	1.1839931E+004	5.0026648E+004	5.1408652E+004	-7.6684669E+001	8.825602493860060E+001	-3.1621221E-001	8.8111835E-004	2.0075929E+000	1.9011047E+000	1.000000000000000E+000	14	1.3269633E-001	2.5812062E-006	2.028725282388763E-005	3.4272892E-004	4.4799872E-006	1.8929057E-005	1.9451978E-005	7.6684669E+001	5.316918220708210E-007
1.4122382E+000	1.3125554E+004	5.5129520E+004	5.6670488E+004	-7.6608017E+001	9.078524052540888E+001	-3.1621242E-001	8.8730338E-004	2.0442214E+000	1.9345611E+000	1.000000000000000E+000	14	1.3269758E-001	2.3415641E-006	2.099240478308578E-005	1.8232394E-004	4.0869913E-006	1.7166047E-005	1.7645869E-005	7.6608017E+001	7.051519591981451E-007
1.2596743E+000	1.4583015E+004	6.0731039E+004	6.2457371E+004	-7.6497520E+001	9.361404543308890E+001	-3.1621495E-001	8.9644117E-004	2.0804205E+000	1.9670036E+000	1.000000000000000E+000	14	1.3269591E-001	2.1245837E-006	2.156649025934267E-005	2.1918953E-005	3.7383491E-006	1.5568376E-005	1.6010921E-005	7.6497520E+001	5.740854762568962E-007
1.1224856E+000	1.6322314E+004	6.6977313E+004	6.8937492E+004	-7.6304031E+001	9.678214350357302E+001	-3.1621078E-001	8.8897959E-004	2.1169548E+000	1.9982789E+000	1.000000000000000E+000	14	1.3269575E-001	1.9248705E-006	2.249545103800781E-005	-5.8283542E-005	3.4345576E-006	1.4093431E-005	1.4505895E-005	7.6304031E+001	9.289607786651383E-007
1.0000638E+000	1.8169205E+004	7.3849453E+004	7.6051703E+004	-7.6178024E+001	1.003313123121334E+002	-3.1621194E-001	8.8884949E-004	2.1549895E+000	2.0319912E+000	1.000000000000000E+000	14	1.3269418E-001	1.7447892E-006	2.322356168506119E-005	2.1918953E-005	3.1413620E-006	1.2768191E-005	1.3148950E-005	7.6178024E+001	7.281106470533758E-007