EC-Lab ASCII FILE
Nb header lines : 60                          

Potentio Electrochemical Impedance Spectroscopy

Run on channel : 2 (SN 20919)
User : 
CE vs. WE compliance from -10 V to 10 V
Electrode connection : standard
Ewe ctrl range : min = -10.00 V, max = 10.00 V
Acquisition started on : 02/20/2020 14:52:25
Technique started on : 02/20/2020 14:52:26
Saved on :
	File : DE_65_2_60.mpr
	Directory : P:\Chemistry\Data\VMP3\Kyler\DOE\DE_65\60C\
	Host : 10.0.4.64
Device : VMP3 (SN 1432)
Address : USB
EC-Lab for windows v11.33 (software)
Internet server v11.32 (firmware)
Command interpretor v11.33 (firmware)
Electrode material : 
Initial state : 
Electrolyte : 
Comments : 
Electrode surface area : 0.001 cm²
Characteristic mass : 0.001 g
Equivalent Weight : 0.000 g/eq.
Density : 0.000 g/cm3
Record Analogic IN 1
Cycle Definition : Charge/Discharge alternance
Mode                Single sine         
E (V)               0.0000              
vs.                 Eoc                 
tE (h:m:s)          0:00:0.0000         
record              0                   
dI                  1.000               
unit dI             mA                  
dt (s)              0.000               
fi                  1.000               
unit fi             MHz                 
ff                  1.000               
unit ff             Hz                  
Nd                  20                  
Points              per decade          
spacing             Logarithmic         
Va (mV)             128.0               
pw                  0.50                
Na                  3                   
corr                0                   
E range min (V)     -10.000             
E range max (V)     10.000              
I Range             Auto                
Bandwidth           5                   
nc cycles           0                   
goto Ns'            0                   
nr cycles           0                   
inc. cycle          1                   

freq/Hz	Re(Z)/Ohm	-Im(Z)/Ohm	|Z|/Ohm	Phase(Z)/deg	time/s	<Ewe>/V	<I>/mA	Cs/µF	Cp/µF	cycle number	I Range	|Ewe|/V	|I|/A	(Q-Qo)/mA.h	Analog IN 1/V	Re(Y)/Ohm-1	Im(Y)/Ohm-1	|Y|/Ohm-1	Phase(Y)/deg	dq/mA.h	
1.0000186E+006	-1.0197915E+000	-4.5306153E+000	4.6439691E+000	1.0268523E+002	1.982487507484620E+000	-2.8607324E-003	-3.9672872E-001	-3.5128117E-002	-3.3434175E-002	1.000000000000000E+000	9	3.3044827E-004	7.1156435E-005	-1.046687496198542E-004	3.4468737E-004	-4.7286015E-002	-2.1007702E-001	2.1533304E-001	-1.0268523E+002	-1.046687496198542E-004
8.9124669E+005	7.5985003E+000	-5.7779913E+000	9.5458050E+000	3.7249794E+001	2.881475603528088E+000	-2.3310778E-003	-2.6965147E-001	-3.0906180E-002	-1.1323325E-002	1.000000000000000E+000	10	4.9863884E-004	5.2236439E-005	-1.757803283599561E-004	1.8432573E-004	8.3387852E-002	-6.3409127E-002	1.0475806E-001	-3.7249794E+001	-7.111157874010195E-005
7.9433269E+005	7.4200554E+000	-5.6580095E+000	9.3311462E+000	3.7326580E+001	3.477493365149712E+000	-1.9813429E-003	-2.2868451E-001	-3.5412293E-002	-1.3020012E-002	1.000000000000000E+000	10	7.9082610E-004	8.4751227E-005	-2.129095509071695E-004	-2.9675924E-004	8.5219137E-002	-6.4982086E-002	1.0716797E-001	-3.7326580E+001	-3.712922254721341E-005
7.0794981E+005	7.4889765E+000	-5.3293791E+000	9.1916838E+000	3.5436790E+001	4.073474940116284E+000	-1.6809923E-003	-1.9441268E-001	-4.2183347E-002	-1.4180911E-002	1.000000000000000E+000	10	1.2042430E-003	1.3101441E-004	-2.443488993070868E-004	2.3964079E-005	8.8640526E-002	-6.3079245E-002	1.0879400E-001	-3.5436790E+001	-3.143934839991726E-005
6.3095681E+005	7.6421242E+000	-4.9531250E+000	9.1068935E+000	3.2948669E+001	4.669472488429165E+000	-1.4203689E-003	-1.6477518E-001	-5.0926194E-002	-1.5064658E-002	1.000000000000000E+000	10	1.7630868E-003	1.9359913E-004	-2.710068439826524E-004	-5.6216748E-005	9.2145376E-002	-5.9722610E-002	1.0980693E-001	-3.2948669E+001	-2.665794467556566E-005
5.6234225E+005	7.7463398E+000	-4.5283647E+000	8.9728403E+000	3.0309753E+001	5.265491796744755E+000	-1.2283316E-003	-1.4250045E-001	-6.2499717E-002	-1.5918456E-002	1.000000000000000E+000	10	2.4835356E-003	2.7678366E-004	-2.939467761966096E-004	2.6450655E-004	9.6213646E-002	-5.6244686E-002	1.1144743E-001	-3.0309753E+001	-2.293993221395716E-005
5.0120619E+005	7.8419118E+000	-4.0867682E+000	8.8429213E+000	2.7526018E+001	5.862493238440948E+000	-1.0657496E-003	-1.2366838E-001	-7.7700481E-002	-1.6595570E-002	1.000000000000000E+000	10	3.4096271E-003	3.8557700E-004	-3.130299353462210E-004	3.4468737E-004	1.0028372E-001	-5.2262295E-002	1.1308480E-001	-2.7526018E+001	-1.908315914961144E-005
4.4668572E+005	7.8997641E+000	-3.6471746E+000	8.7010431E+000	2.4781895E+001	6.458492253412260E+000	-9.4393891E-004	-1.0914055E-001	-9.7692564E-002	-1.7164532E-002	1.000000000000000E+000	10	4.5723487E-003	5.2549434E-004	-3.293225275894704E-004	-5.6216748E-005	1.0434496E-001	-4.8174135E-002	1.1492875E-001	-2.4781895E+001	-1.629259224324940E-005
3.9810347E+005	7.9394841E+000	-3.2584867E+000	8.5821409E+000	2.2314003E+001	7.053496388340136E+000	-8.9166511E-004	-1.0351778E-001	-1.2268973E-001	-1.7686784E-002	1.000000000000000E+000	10	6.0232296E-003	7.0183299E-004	-3.464509425493662E-004	1.0414491E-004	1.0779559E-001	-4.4240970E-002	1.1652104E-001	-2.2314003E+001	-1.712841495989581E-005
3.5480997E+005	7.9540710E+000	-2.8904035E+000	8.4629593E+000	1.9970470E+001	7.648491296597058E+000	-8.7671378E-004	-1.0005273E-001	-1.5519075E-001	-1.8102489E-002	1.000000000000000E+000	10	7.8275772E-003	9.2492200E-004	-3.625281739796305E-004	-5.6216748E-005	1.1105675E-001	-4.0356543E-002	1.1816198E-001	-1.9970470E+001	-1.607723143026425E-005
3.1622997E+005	7.9704413E+000	-2.5576730E+000	8.3707600E+000	1.7791164E+001	8.243496844865149E+000	-8.7839155E-004	-1.0134512E-001	-1.9677597E-001	-1.8370980E-002	1.000000000000000E+000	10	1.0105132E-002	1.2071941E-003	-3.784638222039664E-004	1.8432573E-004	1.1375031E-001	-3.6501881E-002	1.1946347E-001	-1.7791164E+001	-1.593564822433593E-005
2.8183453E+005	7.9801784E+000	-2.2647994E+000	8.2953339E+000	1.5844106E+001	8.838482073129853E+000	-8.9496479E-004	-1.0378258E-001	-2.4934241E-001	-1.8586084E-002	1.000000000000000E+000	10	1.3007767E-002	1.5680824E-003	-3.917976786070180E-004	-5.6216748E-005	1.1596979E-001	-3.2912586E-002	1.2054970E-001	-1.5844106E+001	-1.333385640305159E-005
2.5118764E+005	7.9886966E+000	-2.0040216E+000	8.2362232E+000	1.4082456E+001	9.433479008061113E+000	-8.9986762E-004	-1.0337602E-001	-3.1616911E-001	-1.8718371E-002	1.000000000000000E+000	10	1.6777981E-002	2.0370965E-003	-4.075013872401065E-004	1.8432573E-004	1.1776593E-001	-2.9542426E-002	1.2141487E-001	-1.4082456E+001	-1.570370863308846E-005
2.2387173E+005	7.9893627E+000	-1.7692089E+000	8.1829100E+000	1.2486395E+001	1.002847380962339E+001	-8.8952086E-004	-1.0196424E-001	-4.0182942E-001	-1.8783841E-002	1.000000000000000E+000	10	2.1729186E-002	2.6554351E-003	-4.236850652518398E-004	-5.6216748E-005	1.1931542E-001	-2.6421869E-002	1.2220591E-001	-1.2486395E+001	-1.618367801173331E-005
1.9954350E+005	7.9916635E+000	-1.5640343E+000	8.1432724E+000	1.1073297E+001	1.062448645129916E+001	-8.9582201E-004	-1.0314097E-001	-5.0996017E-001	-1.8811824E-002	1.000000000000000E+000	10	2.8340356E-002	3.4802172E-003	-4.381426287023480E-004	-6.1748258E-004	1.2051448E-001	-2.3585677E-002	1.2280075E-001	-1.1073297E+001	-1.445756345050820E-005
1.7783180E+005	7.9953585E+000	-1.3808746E+000	8.1137276E+000	9.7988615E+000	1.122048389291740E+001	-8.8773068E-004	-1.0161544E-001	-6.4812154E-001	-1.8772587E-002	1.000000000000000E+000	10	3.7127674E-002	4.5759082E-003	-4.587734855168965E-004	2.3964079E-005	1.2144989E-001	-2.0975552E-002	1.2324791E-001	-9.7988615E+000	-2.063085681454851E-005
1.5848613E+005	8.0002270E+000	-1.2187999E+000	8.0925341E+000	8.6621599E+000	1.181648818790563E+001	-8.7647041E-004	-1.0112122E-001	-8.2394171E-001	-1.8689265E-002	1.000000000000000E+000	10	4.8496161E-002	5.9927036E-003	-4.805023225627633E-004	1.0414491E-004	1.2216119E-001	-1.8610729E-002	1.2357069E-001	-8.6621599E+000	-2.172883704586680E-005
1.4125594E+005	8.0041285E+000	-1.0768182E+000	8.0762377E+000	7.6621590E+000	1.241248704286409E+001	-8.7743951E-004	-1.0090671E-001	-1.0463356E+000	-1.8601056E-002	1.000000000000000E+000	10	6.2660076E-002	7.7585722E-003	-4.997425767977516E-004	-2.1657841E-004	1.2271450E-001	-1.6509131E-002	1.2382003E-001	-7.6621590E+000	-1.924025423498827E-005
1.2590930E+005	8.0103474E+000	-9.5058888E-001	8.0665531E+000	6.7676468E+000	1.300947861789609E+001	-8.5493719E-004	-9.9241272E-002	-1.3297489E+000	-1.8466266E-002	1.000000000000000E+000	10	7.9411983E-002	9.8445993E-003	-5.246639117022149E-004	1.0414491E-004	1.2310490E-001	-1.4608874E-002	1.2396869E-001	-6.7676468E+000	-2.492133490446333E-005
1.1220494E+005	8.0147190E+000	-8.3804226E-001	8.0584135E+000	5.9693213E+000	1.360548067287891E+001	-8.4032118E-004	-9.6024200E-002	-1.6925528E+000	-1.8305222E-002	1.000000000000000E+000	10	9.8479576E-002	1.2220715E-002	-5.521319886847503E-004	-5.6216748E-005	1.2342104E-001	-1.2905261E-002	1.2409391E-001	-5.9693213E+000	-2.746807698253537E-005
1.0000371E+005	8.0190296E+000	-7.3859054E-001	8.0529718E+000	5.2623649E+000	1.406548616135842E+001	-8.5156207E-004	-9.7489975E-002	-2.1547668E+000	-1.8125724E-002	1.000000000000000E+000	10	1.1921044E-001	1.4803286E-002	-5.738422565581277E-004	1.8432573E-004	1.2365437E-001	-1.1389152E-002	1.2417776E-001	-5.2623649E+000	-2.171026787337743E-005
8.9129305E+004	8.0242205E+000	-6.5021527E-001	8.0505209E+000	4.6326461E+000	1.452547508987482E+001	-8.3172548E-004	-9.4957352E-002	-2.7462649E+000	-1.7914670E-002	1.000000000000000E+000	10	1.3994795E-001	1.7383713E-002	-5.831491985730827E-004	5.8522983E-004	1.2380975E-001	-1.0032501E-002	1.2421557E-001	-4.6326461E+000	-9.306942014955023E-006
7.9433273E+004	8.0299482E+000	-5.7193154E-001	8.0502901E+000	4.0740013E+000	1.512147687820834E+001	-8.1412715E-004	-9.3140915E-002	-3.5032699E+000	-1.7682297E-002	1.000000000000000E+000	10	1.3115153E-001	1.6291529E-002	-5.744741516990795E-004	-2.1657841E-004	1.2390524E-001	-8.8251270E-003	1.2421913E-001	-4.0740013E+000	8.675046874003249E-006
7.0794977E+004	8.0349598E+000	-5.0230330E-001	8.0506449E+000	3.5771749E+000	1.571748957320233E+001	-7.8144675E-004	-8.9741163E-002	-4.4756036E+000	-1.7422978E-002	1.000000000000000E+000	10	1.3045245E-001	1.6203975E-002	-5.868317939788103E-004	-2.9675924E-004	1.2397164E-001	-7.7500534E-003	1.2421365E-001	-3.5771749E+000	-1.235764227973087E-005
6.3093828E+004	8.0394154E+000	-4.4073525E-001	8.0514870E+000	3.1379170E+000	1.631347949479823E+001	-7.7600311E-004	-8.8955991E-002	-5.7234178E+000	-1.7149791E-002	1.000000000000000E+000	10	1.3034472E-001	1.6188901E-002	-6.136417038929131E-004	1.0414491E-004	1.2401444E-001	-6.7986953E-003	1.2420066E-001	-3.1379170E+000	-2.680990991410276E-005
5.6237012E+004	8.0443563E+000	-3.8656753E-001	8.0536394E+000	2.7512035E+000	1.690947869644151E+001	-7.4533600E-004	-8.5255988E-002	-7.3210354E+000	-1.6867042E-002	1.000000000000000E+000	10	1.3028705E-001	1.6177414E-002	-6.287449447950348E-004	-4.5712088E-004	1.2402435E-001	-5.9599276E-003	1.2416746E-001	-2.7512035E+000	-1.510324090212174E-005
5.0122477E+004	8.0491152E+000	-3.3829528E-001	8.0562210E+000	2.4066608E+000	1.750548797808005E+001	-7.4043300E-004	-8.3954297E-002	-9.3862400E+000	-1.6550869E-002	1.000000000000000E+000	10	1.3013472E-001	1.6153321E-002	-6.445082336665753E-004	1.0414491E-004	1.2401819E-001	-5.2123452E-003	1.2412768E-001	-2.4066608E+000	-1.576328887154042E-005
4.4666715E+004	8.0532761E+000	-2.9576835E-001	8.0587053E+000	2.1033261E+000	1.810049003301538E+001	-7.1854674E-004	-8.2290739E-002	-1.2047153E+001	-1.6227711E-002	1.000000000000000E+000	10	1.3002503E-001	1.6134730E-002	-6.502836487134919E-004	-5.6216748E-005	1.2400581E-001	-4.5542950E-003	1.2408941E-001	-2.1033261E+000	-5.775415046916613E-006
3.9814063E+004	8.0573168E+000	-2.5795043E-001	8.0614452E+000	1.8336655E+000	1.869648248798330E+001	-7.0724927E-004	-8.0065899E-002	-1.5496992E+001	-1.5866973E-002	1.000000000000000E+000	10	1.2985015E-001	1.6107552E-002	-6.706115926429888E-004	-1.3639758E-004	1.2398371E-001	-3.9692679E-003	1.2404723E-001	-1.8336655E+000	-2.032794392949695E-005
3.5480996E+004	8.0612869E+000	-2.2386307E-001	8.0643950E+000	1.5907029E+000	1.915548232317087E+001	-7.1332633E-004	-8.0972202E-002	-2.0037424E+001	-1.5440566E-002	1.000000000000000E+000	10	1.3982257E-001	1.7338259E-002	-6.863290894519951E-004	-2.9675924E-004	1.2395407E-001	-3.4422218E-003	1.2400186E-001	-1.5907029E+000	-1.571749680900631E-005
3.1621143E+004	8.0650711E+000	-1.9394048E-001	8.0674028E+000	1.3775240E+000	1.975249251149944E+001	-7.0613064E-004	-8.0644004E-002	-2.5952196E+001	-1.4998352E-002	1.000000000000000E+000	10	1.3095531E-001	1.6232647E-002	-6.770987127074558E-004	2.6450655E-004	1.2391981E-001	-2.9798951E-003	1.2395563E-001	-1.3775240E+000	9.230376744539365E-006
2.8188096E+004	8.0684423E+000	-1.6686170E-001	8.0701675E+000	1.1847527E+000	2.021248429335537E+001	-7.1774458E-004	-8.1091590E-002	-3.3837456E+001	-1.4465916E-002	1.000000000000000E+000	10	1.3916707E-001	1.7244631E-002	-6.695566333351243E-004	-3.7694006E-004	1.2388667E-001	-2.5620733E-003	1.2391316E-001	-1.1847527E+000	7.542079372331438E-006
2.5116910E+004	8.0717783E+000	-1.4267485E-001	8.0730391E+000	1.0126413E+000	2.080747605496435E+001	-6.9660443E-004	-7.9590328E-002	-4.4412628E+001	-1.3871621E-002	1.000000000000000E+000	10	1.3042670E-001	1.6155837E-002	-6.763711137843525E-004	-6.9766340E-004	1.2384974E-001	-2.1891391E-003	1.2386909E-001	-1.0126413E+000	-6.814480449228205E-006
2.2389027E+004	8.0747862E+000	-1.2118524E-001	8.0756950E+000	8.5982239E-001	2.126647490341566E+001	-6.9311779E-004	-7.8613088E-002	-5.8659069E+001	-1.3209148E-002	1.000000000000000E+000	10	1.3682865E-001	1.6943267E-002	-7.007473029674342E-004	1.0414491E-004	1.2381441E-001	-1.8581891E-003	1.2382835E-001	-8.5982239E-001	-2.437618918308163E-005
1.9948783E+004	8.0774136E+000	-1.0132370E-001	8.0780487E+000	7.1868503E-001	2.186149111835402E+001	-6.9056428E-004	-7.9105482E-002	-7.8739510E+001	-1.2388019E-002	1.000000000000000E+000	10	1.2981705E-001	1.6070347E-002	-6.895462612448674E-004	5.0504901E-004	1.2378253E-001	-1.5527377E-003	1.2379227E-001	-7.1868503E-001	1.120104172256677E-005
1.7786895E+004	8.0806665E+000	-8.4067114E-002	8.0811043E+000	5.9605438E-001	2.232148383351159E+001	-6.8858790E-004	-7.8286730E-002	-1.0643731E+002	-1.1518734E-002	1.000000000000000E+000	10	1.3456592E-001	1.6651923E-002	-7.039845483406033E-004	-5.6216748E-005	1.2373877E-001	-1.2873146E-003	1.2374546E-001	-5.9605438E-001	-1.443828709573594E-005
1.5847686E+004	8.0826645E+000	-6.7890868E-002	8.0829496E+000	4.8124829E-001	2.278148545537260E+001	-6.8963156E-004	-7.8614943E-002	-1.4792546E+002	-1.0435804E-002	1.000000000000000E+000	10	1.3877262E-001	1.7168563E-002	-7.287118950040054E-004	1.8432573E-004	1.2371285E-001	-1.0391341E-003	1.2371721E-001	-4.8124829E-001	-2.472734666340208E-005
1.4121879E+004	8.0856104E+000	-5.2899513E-002	8.0857830E+000	3.7484813E-001	2.337649167029304E+001	-6.8402075E-004	-7.7689998E-002	-2.1304727E+002	-9.1187470E-003	1.000000000000000E+000	10	1.2968813E-001	1.6039032E-002	-7.109431920006561E-004	2.6450655E-004	1.2367122E-001	-8.0910994E-004	1.2367386E-001	-3.7484813E-001	1.776870300334936E-005
1.2590932E+004	8.0884180E+000	-3.9363723E-002	8.0885134E+000	2.7883792E-001	2.383649086547666E+001	-6.9613819E-004	-7.8476965E-002	-3.2111908E+002	-7.6053818E-003	1.000000000000000E+000	10	1.3250203E-001	1.6381506E-002	-7.118460541256289E-004	-4.5712088E-004	1.2363064E-001	-6.0167059E-004	1.2363211E-001	-2.7883792E-001	-9.028621249728645E-007
1.1217711E+004	8.0908499E+000	-2.6559334E-002	8.0908937E+000	1.8808064E-001	2.429647654065047E+001	-6.8295776E-004	-7.8070380E-002	-5.3419366E+002	-5.7562562E-003	1.000000000000000E+000	10	1.3490266E-001	1.6673394E-002	-7.159991141424980E-004	-5.6216748E-005	1.2359507E-001	-4.0571790E-004	1.2359574E-001	-1.8808064E-001	-4.153060016869091E-006
1.0002229E+004	8.0931625E+000	-1.4200453E-002	8.0931749E+000	1.0053241E-001	2.475649224253721E+001	-6.8439316E-004	-7.7675022E-002	-1.1205239E+003	-3.4497501E-003	1.000000000000000E+000	10	1.3689257E-001	1.6914569E-002	-7.152947888535758E-004	-5.6216748E-005	1.2356071E-001	-2.1680252E-004	1.2356091E-001	-1.0053241E-001	7.043252889222347E-007
8.9149297E+003	8.0960255E+000	-3.0071577E-003	8.0960264E+000	2.1281730E-002	2.523890397211653E+001	-6.5790192E-004	-7.4575514E-002	-5.9367124E+003	-8.1905787E-004	1.000000000000000E+000	10	1.3855074E-001	1.7113425E-002	-7.346984843715198E-004	1.8432573E-004	1.2351738E-001	-4.5878834E-005	1.2351739E-001	-2.1281730E-002	-1.940369551794400E-005
7.9439976E+003	8.0983934E+000	7.8849383E-003	8.0983973E+000	-5.5785574E-002	2.576499426376540E+001	-6.4043375E-004	-7.2559506E-002	2.5408718E+003	2.4086914E-003	1.000000000000000E+000	10	1.3991621E-001	1.7277025E-002	-7.353825253947742E-004	-5.3730176E-004	1.2348116E-001	1.2022648E-004	1.2348122E-001	5.5785574E-002	-6.840410232543826E-007
7.0822334E+003	8.1016417E+000	1.9052355E-002	8.1016636E+000	-1.3474029E-001	2.651088059254107E+001	-6.3107582E-004	-7.1308188E-002	1.1795090E+003	6.5230415E-003	1.000000000000000E+000	10	1.2931955E-001	1.5962098E-002	-7.164303650893271E-004	-3.7694006E-004	1.2343109E-001	2.9026871E-004	1.2343144E-001	1.3474029E-001	1.895216030544701E-005
6.3077344E+003	8.1045990E+000	2.9642845E-002	8.1046534E+000	-2.0956032E-001	2.714456320929457E+001	-6.3040468E-004	-7.0026986E-002	8.5119067E+002	1.1386696E-002	1.000000000000000E+000	10	1.3015020E-001	1.6058700E-002	-7.417135895110357E-004	1.0414491E-004	1.2338508E-001	4.5128510E-004	1.2338591E-001	2.0956032E-001	-2.528322442170851E-005
5.6210552E+003	8.1083708E+000	4.0126830E-002	8.1084700E+000	-2.8354394E-001	2.784527012254694E+001	-6.2257465E-004	-6.8883769E-002	7.0561438E+002	1.7280620E-002	1.000000000000000E+000	10	1.3081473E-001	1.6133096E-002	-7.637399659494404E-004	-1.3639758E-004	1.2332632E-001	6.1031926E-004	1.2332783E-001	2.8354394E-001	-2.202637643840472E-005
5.0116035E+003	8.1124077E+000	5.0870232E-002	8.1125669E+000	-3.5927823E-001	2.860569314538589E+001	-6.1604974E-004	-6.8960235E-002	6.2428040E+002	2.4546556E-002	1.000000000000000E+000	10	1.3134623E-001	1.6190464E-002	-7.898121425093979E-004	-1.3639758E-004	1.2326313E-001	7.7294244E-004	1.2326555E-001	3.5927823E-001	-2.607217655995755E-005
4.4664292E+003	8.1171265E+000	6.1517160E-002	8.1173592E+000	-4.3421850E-001	2.936570798148750E+001	-6.1366346E-004	-6.9297813E-002	5.7924646E+002	3.3267979E-002	1.000000000000000E+000	10	1.3177249E-001	1.6233418E-002	-8.182722763475030E-004	2.6450655E-004	1.2318923E-001	9.3361270E-004	1.2319277E-001	4.3421850E-001	-2.846013383810510E-005
3.9812742E+003	8.1215343E+000	7.2683178E-002	8.1218596E+000	-5.1275140E-001	3.012469817753299E+001	-6.0670974E-004	-6.7567140E-002	5.5000183E+002	4.4047471E-002	1.000000000000000E+000	10	1.3211046E-001	1.6266037E-002	-8.268251456378235E-004	-2.1657841E-004	1.2311958E-001	1.1018512E-003	1.2312451E-001	5.1275140E-001	-8.552869290320494E-006
3.5465955E+003	8.1274719E+000	8.3382927E-002	8.1278992E+000	-5.8779931E-001	3.088493944029324E+001	-6.1366346E-004	-6.8630129E-002	5.3818469E+002	5.6640752E-002	1.000000000000000E+000	10	1.3239287E-001	1.6288694E-002	-8.429165441535620E-004	-5.6216748E-005	1.2302655E-001	1.2621777E-003	1.2303302E-001	5.8779931E-001	-1.609139851573851E-005
3.1610112E+003	8.1331778E+000	9.5189556E-002	8.1337347E+000	-6.7055106E-001	3.164468603640125E+001	-6.1299227E-004	-6.8674870E-002	5.2893805E+002	7.2444163E-002	1.000000000000000E+000	10	1.3260666E-001	1.6303292E-002	-8.510559932174058E-004	6.6541065E-004	1.2293633E-001	1.4388293E-003	1.2294475E-001	6.7055106E-001	-8.139449063843725E-006
2.8172952E+003	8.1404428E+000	1.0728300E-001	8.1411495E+000	-7.5505811E-001	3.240495303249918E+001	-6.1129587E-004	-6.8046406E-002	5.2657092E+002	9.1442317E-002	1.000000000000000E+000	10	1.3277978E-001	1.6309708E-002	-8.532210545646441E-004	3.4468737E-004	1.2282211E-001	1.6186741E-003	1.2283278E-001	7.5505811E-001	-2.165061347238315E-006
2.5108032E+003	8.1482267E+000	1.1912688E-001	8.1490974E+000	-8.3760321E-001	3.316466677525750E+001	-6.1494968E-004	-6.8324283E-002	5.3210547E+002	1.1370988E-001	1.000000000000000E+000	10	1.3291311E-001	1.6310163E-002	-8.592050567660481E-004	1.0414491E-004	1.2269986E-001	1.7938690E-003	1.2271298E-001	8.3760321E-001	-5.984002201403992E-006
2.2378516E+003	8.1575336E+000	1.3183150E-001	8.1585989E+000	-9.2585957E-001	3.392496603803011E+001	-6.1491242E-004	-6.8469740E-002	5.3947296E+002	1.4085649E-001	1.000000000000000E+000	10	1.3301669E-001	1.6303865E-002	-8.856815842442835E-004	-1.3639758E-004	1.2255406E-001	1.9805601E-003	1.2257007E-001	9.2585957E-001	-2.647652747823546E-005
1.9956389E+003	8.1681871E+000	1.4438275E-001	8.1694632E+000	-1.0126679E+000	3.468468503412441E+001	-6.0803338E-004	-6.7261279E-002	5.5236084E+002	1.7253073E-001	1.000000000000000E+000	10	1.3310438E-001	1.6292917E-002	-8.868225713922163E-004	-5.6216748E-005	1.2238795E-001	2.1633573E-003	1.2240706E-001	1.0126679E+000	-1.140987147932792E-006
1.7782927E+003	8.1815357E+000	1.5770490E-001	8.1830559E+000	-1.1042800E+000	3.544493200353463E+001	-6.1845459E-004	-6.8954624E-002	5.6750757E+002	2.1078080E-001	1.000000000000000E+000	10	1.3317105E-001	1.6274000E-002	-9.149399444409129E-004	1.0414491E-004	1.2218104E-001	2.3551262E-003	1.2220374E-001	1.1042800E+000	-2.811737304869656E-005
1.5855076E+003	8.1954641E+000	1.6984536E-001	8.1972237E+000	-1.1872457E+000	3.620469305298320E+001	-6.0091185E-004	-6.6990845E-002	5.9101447E+002	2.5373006E-001	1.000000000000000E+000	10	1.3322109E-001	1.6251978E-002	-9.350393817654339E-004	-1.3639758E-004	1.2196633E-001	2.5276684E-003	1.2199252E-001	1.1872457E+000	-2.009943732452098E-005
1.4118373E+003	8.2115955E+000	1.8238345E-001	8.2136211E+000	-1.2723573E+000	3.696619738245499E+001	-6.2128808E-004	-6.8579778E-002	6.1808765E+002	3.0475554E-001	1.000000000000000E+000	10	1.3325667E-001	1.6223865E-002	-9.613252236491276E-004	-5.6216748E-005	1.2171897E-001	2.7034362E-003	1.2174898E-001	1.2723573E+000	-2.628584188369375E-005
1.2587914E+003	8.2289190E+000	1.9392109E-001	8.2312040E+000	-1.3499712E+000	3.772595368523616E+001	-6.1653432E-004	-6.8370908E-002	6.5199054E+002	3.6188006E-001	1.000000000000000E+000	10	1.3327953E-001	1.6191985E-002	-9.851778113614353E-004	2.6450655E-004	1.2145519E-001	2.8621890E-003	1.2148891E-001	1.3499712E+000	-2.385258771230774E-005
1.1217948E+003	8.2483711E+000	2.0500024E-001	8.2509184E+000	-1.4237030E+000	3.848441049453686E+001	-6.1757822E-004	-6.8840876E-002	6.9207367E+002	4.2722481E-001	1.000000000000000E+000	10	1.3330588E-001	1.6156489E-002	-9.964567673072515E-004	2.3964079E-005	1.2116122E-001	3.0112707E-003	1.2119863E-001	1.4237030E+000	-1.127895594581619E-005
1.0003201E+003	8.2694197E+000	2.1468939E-001	8.2722063E+000	-1.4871701E+000	3.924367255732795E+001	-6.2400999E-004	-6.9488019E-002	7.4108936E+002	4.9917063E-001	1.000000000000000E+000	10	1.3332000E-001	1.6116619E-002	-1.026105424973493E-003	-2.1657841E-004	1.2084602E-001	3.1373855E-003	1.2088674E-001	1.4871701E+000	-2.964865766624130E-005
8.9142657E+002	8.2919474E+000	2.2240435E-001	8.2949295E+000	-1.5364033E+000	4.000243179334211E+001	-6.0943153E-004	-6.7971841E-002	8.0277026E+002	5.7710177E-001	1.000000000000000E+000	10	1.3333058E-001	1.6073745E-002	-1.053447571363921E-003	2.3964079E-005	1.2051223E-001	3.2323459E-003	1.2055557E-001	1.5364033E+000	-2.734214639042807E-005
7.9423773E+002	8.3164911E+000	2.2880660E-001	8.3196383E+000	-1.5759466E+000	4.076195028275833E+001	-6.1783934E-004	-6.8249717E-002	8.7579218E+002	6.6241366E-001	1.000000000000000E+000	10	1.3334036E-001	1.6027182E-002	-1.057341750454882E-003	2.3964079E-005	1.2015207E-001	3.3056713E-003	1.2019753E-001	1.5759466E+000	-3.894179090960974E-006
7.0750946E+002	8.3413448E+000	2.3254088E-001	8.3445854E+000	-1.5968841E+000	4.152345567892189E+001	-6.1060593E-004	-6.7621224E-002	9.6736102E+002	7.5123817E-001	1.000000000000000E+000	10	1.3334532E-001	1.5979862E-002	-1.083910119032280E-003	3.4468737E-004	1.1979164E-001	3.3395640E-003	1.1983819E-001	1.5968841E+000	-2.656836857739845E-005
6.3100964E+002	8.3667202E+000	2.3390393E-001	8.3699894E+000	-1.6013705E+000	4.228142262154142E+001	-6.1288034E-004	-6.7173652E-002	1.0783174E+003	8.4211588E-001	1.000000000000000E+000	10	1.3334285E-001	1.5931066E-002	-1.091813642859976E-003	-1.3639758E-004	1.1942780E-001	3.3387793E-003	1.1947446E-001	1.6013705E+000	-7.903523827695923E-006
5.6233929E+002	8.3919182E+000	2.3278317E-001	8.3951464E+000	-1.5889184E+000	4.303790609753923E+001	-6.1343965E-004	-6.8316855E-002	1.2158224E+003	9.3479574E-001	1.000000000000000E+000	10	1.3334274E-001	1.5883313E-002	-1.092850081166149E-003	2.3964079E-005	1.1907065E-001	3.3028971E-003	1.1911645E-001	1.5889184E+000	-1.036438306172656E-006
5.0144415E+002	8.4172115E+000	2.2832148E-001	8.4203072E+000	-1.5537984E+000	4.379519269344746E+001	-6.1440910E-004	-6.8408214E-002	1.3901152E+003	1.0220884E+000	1.000000000000000E+000	10	1.3334616E-001	1.5836257E-002	-1.113904788429124E-003	1.0414491E-004	1.1871684E-001	3.2202594E-003	1.1876051E-001	1.5537984E+000	-2.105470726297557E-005
4.4685895E+002	8.4414167E+000	2.2290273E-001	8.4443588E+000	-1.5125920E+000	4.455191576943616E+001	-6.0909591E-004	-6.8135940E-002	1.5978438E+003	1.1133500E+000	1.000000000000000E+000	10	1.3334215E-001	1.5790677E-002	-1.117049318799077E-003	-5.6216748E-005	1.1838099E-001	3.1259500E-003	1.1842225E-001	1.5125920E+000	-3.144530369952013E-006
3.9808920E+002	8.4641838E+000	2.1503757E-001	8.4669151E+000	-1.4553199E+000	4.531469748568634E+001	-6.1455817E-004	-6.7945711E-002	1.8591968E+003	1.1992332E+000	1.000000000000000E+000	10	1.3333823E-001	1.5748147E-002	-1.135758569840238E-003	1.0414491E-004	1.1806867E-001	2.9996040E-003	1.1810677E-001	1.4553199E+000	-1.870925104116182E-005
3.5465955E+002	8.4850283E+000	2.0503758E-001	8.4875050E+000	-1.3842621E+000	4.607393061506446E+001	-6.0663512E-004	-6.7908414E-002	2.1886433E+003	1.2772676E+000	1.000000000000000E+000	10	1.3333604E-001	1.5709685E-002	-1.159364669028152E-003	-3.7694006E-004	1.1778587E-001	2.8462524E-003	1.1782026E-001	1.3842621E+000	-2.360609918791398E-005
3.1631586E+002	8.5036469E+000	1.9422001E-001	8.5058641E+000	-1.3083860E+000	4.683089977101190E+001	-6.1435305E-004	-6.8445504E-002	2.5906289E+003	1.3506917E+000	1.000000000000000E+000	10	1.3333555E-001	1.5675720E-002	-1.162579169879254E-003	1.8432573E-004	1.1753530E-001	2.6844607E-003	1.1756595E-001	1.3083860E+000	-3.214500851101343E-006
2.8189429E+002	8.5192795E+000	1.8245237E-001	8.5212326E+000	-1.2268823E+000	4.758642420687829E+001	-6.1442767E-004	-6.8337336E-002	3.0944563E+003	1.4186606E+000	1.000000000000000E+000	10	1.3333386E-001	1.5647251E-002	-1.190734912236945E-003	1.8432573E-004	1.1732701E-001	2.5127234E-003	1.1735392E-001	1.2268823E+000	-2.815574235769179E-005
2.5104436E+002	8.5344229E+000	1.6971754E-001	8.5361099E+000	-1.1392472E+000	4.834293000283651E+001	-6.1295490E-004	-6.8779320E-002	3.7354502E+003	1.4766459E+000	1.000000000000000E+000	10	1.3333516E-001	1.5620132E-002	-1.210034415850933E-003	-1.3639758E-004	1.1712623E-001	2.3291996E-003	1.1714938E-001	1.1392472E+000	-1.929950361398772E-005
2.2392513E+002	8.5475817E+000	1.5747686E-001	8.5490322E+000	-1.0554726E+000	4.910571801241895E+001	-6.2167970E-004	-6.8797968E-002	4.5133662E+003	1.5314406E+000	1.000000000000000E+000	10	1.3333426E-001	1.5596416E-002	-1.227481013480057E-003	2.6450655E-004	1.1695246E-001	2.1546802E-003	1.1697230E-001	1.0554726E+000	-1.744659762912344E-005
1.9955299E+002	8.5580130E+000	1.4460790E-001	8.5592346E+000	-9.6805584E-001	4.986722348854528E+001	-6.2119495E-004	-6.8941563E-002	5.5153091E+003	1.5742874E+000	1.000000000000000E+000	10	1.3332665E-001	1.5576936E-002	-1.222177342938156E-003	2.6450655E-004	1.1681620E-001	1.9738865E-003	1.1683287E-001	9.6805584E-001	5.303670541900772E-006
1.7778128E+002	8.5679665E+000	1.3279223E-001	8.5689955E+000	-8.8793832E-001	5.063523643169901E+001	-6.1772752E-004	-6.8501450E-002	6.7415757E+003	1.6190004E+000	1.000000000000000E+000	10	1.3332841E-001	1.5559398E-002	-1.222171328761201E-003	3.4468737E-004	1.1668578E-001	1.8084765E-003	1.1669979E-001	8.8793832E-001	6.014176954843506E-009
1.5842838E+002	8.5758095E+000	1.2117188E-001	8.5766659E+000	-8.0950665E-001	5.140173478813085E+001	-6.1422266E-004	-6.8208642E-002	8.2905879E+003	1.6548249E+000	1.000000000000000E+000	10	1.3332464E-001	1.5545043E-002	-1.247307168541657E-003	1.8432573E-004	1.1658379E-001	1.6472703E-003	1.1659542E-001	8.0950665E-001	-2.513583978045624E-005
1.4131134E+002	8.5826826E+000	1.1069773E-001	8.5833969E+000	-7.3894858E-001	5.215490151723498E+001	-6.0505053E-004	-6.7417920E-002	1.0174297E+004	1.6922458E+000	1.000000000000000E+000	10	1.3332543E-001	1.5532945E-002	-1.252654834834833E-003	-2.1657841E-004	1.1649431E-001	1.5025203E-003	1.1650399E-001	7.3894858E-001	-5.347666293175745E-006
1.2584569E+002	8.5883341E+000	9.9820629E-002	8.5889139E+000	-6.6590834E-001	5.291038731308072E+001	-6.1082968E-004	-6.7220211E-002	1.2669559E+004	1.7112978E+000	1.000000000000000E+000	10	1.3332520E-001	1.5522941E-002	-1.273517148565346E-003	4.2486819E-004	1.1642130E-001	1.3531434E-003	1.1642916E-001	6.6590834E-001	-2.086231373051289E-005
1.1218996E+002	8.5930119E+000	9.0670429E-002	8.5934906E+000	-6.0454237E-001	5.365586785518099E+001	-6.1025179E-004	-6.7596942E-002	1.5645898E+004	1.7417773E+000	1.000000000000000E+000	10	1.3332388E-001	1.5514520E-002	-1.291361227994423E-003	-5.6216748E-005	1.1636067E-001	1.2277967E-003	1.1636715E-001	6.0454237E-001	-1.784407942907675E-005
1.0003201E+002	8.5970097E+000	8.1972547E-002	8.5974007E+000	-5.4629910E-001	5.441570469129510E+001	-6.0917059E-004	-6.6302679E-002	1.9409426E+004	1.7644739E+000	1.000000000000000E+000	10	1.3332433E-001	1.5507516E-002	-1.295499881772997E-003	1.0414491E-004	1.1630893E-001	1.1090066E-003	1.1631422E-001	5.4629910E-001	-4.138653778574565E-006
8.9115974E+001	8.6002426E+000	7.3902026E-002	8.6005602E+000	-4.9233145E-001	5.518171840767900E+001	-6.0956203E-004	-6.7438424E-002	2.4166191E+004	1.7842982E+000	1.000000000000000E+000	10	1.3332377E-001	1.5501755E-002	-1.307727321129034E-003	1.8432573E-004	1.1626720E-001	9.9908595E-004	1.1627150E-001	4.9233145E-001	-1.222743935603643E-005
7.9415527E+001	8.6029406E+000	6.6753060E-002	8.6032000E+000	-4.4456795E-001	5.594623465728364E+001	-6.1576994E-004	-6.8065032E-002	3.0022271E+004	1.8074481E+000	1.000000000000000E+000	10	1.3332060E-001	1.5496629E-002	-1.326224643735888E-003	3.4468737E-004	1.1623232E-001	9.0188498E-004	1.1623582E-001	4.4456795E-001	-1.849732260685412E-005
7.0838745E+001	8.6050158E+000	5.9836440E-002	8.6052237E+000	-3.9840952E-001	5.669739773296169E+001	-6.2242540E-004	-6.8257138E-002	3.7547719E+004	1.8154768E+000	1.000000000000000E+000	10	1.3332190E-001	1.5493136E-002	-1.341609692787234E-003	-2.9675924E-004	1.1620568E-001	8.0805592E-004	1.1620849E-001	3.9840952E-001	-1.538504905134646E-005
6.3082302E+001	8.6061478E+000	5.3057216E-002	8.6063108E+000	-3.5322613E-001	5.747782617007033E+001	-6.1123987E-004	-6.7595072E-002	4.7551930E+004	1.8072698E+000	1.000000000000000E+000	10	1.3331392E-001	1.5490252E-002	-1.348284418440165E-003	1.8432573E-004	1.1619160E-001	7.1632548E-004	1.1619380E-001	3.5322613E-001	-6.674725652931106E-006
5.6241817E+001	8.6083736E+000	4.8574563E-002	8.6085110E+000	-3.2330006E-001	5.822131975201773E+001	-6.1036355E-004	-6.7936361E-002	5.8257508E+004	1.8548707E+000	1.000000000000000E+000	10	1.3332033E-001	1.5487038E-002	-1.375037828255186E-003	2.3964079E-005	1.1616226E-001	6.5547001E-004	1.1616411E-001	3.2330006E-001	-2.675340981502070E-005
5.0144413E+001	8.6098261E+000	4.3581467E-002	8.6099367E+000	-2.9001895E-001	5.897816248130403E+001	-6.1414810E-004	-6.7664072E-002	7.2827555E+004	1.8659478E+000	1.000000000000000E+000	10	1.3332321E-001	1.5484806E-002	-1.399754120024076E-003	-2.1657841E-004	1.1614338E-001	5.8789790E-004	1.1614487E-001	2.9001895E-001	-2.471629176889045E-005
4.4671219E+001	8.6103754E+000	3.9173372E-002	8.6104641E+000	-2.6066849E-001	5.974222353092046E+001	-6.1099743E-004	-6.7990437E-002	9.0949719E+004	1.8824791E+000	1.000000000000000E+000	10	1.3331710E-001	1.5483148E-002	-1.408036157417784E-003	-2.9675924E-004	1.1613656E-001	5.2836962E-004	1.1613776E-001	2.6066849E-001	-8.282037393707352E-006
3.9808922E+001	8.6116095E+000	3.5447888E-002	8.6116829E+000	-2.3584475E-001	6.050472658050421E+001	-6.0711981E-004	-6.7652881E-002	1.1278448E+005	1.9109707E+000	1.000000000000000E+000	10	1.3332316E-001	1.5481661E-002	-1.426036753027959E-003	1.8432573E-004	1.1612034E-001	4.7798504E-004	1.1612132E-001	2.3584475E-001	-1.800059561017490E-005
3.5465305E+001	8.6124372E+000	3.1862710E-002	8.6124964E+000	-2.1197142E-001	6.125512426943169E+001	-6.1476330E-004	-6.8417504E-002	1.4084250E+005	1.9277071E+000	1.000000000000000E+000	10	1.3332333E-001	1.5480219E-002	-1.428916796399022E-003	-5.6216748E-005	1.1610956E-001	4.2956078E-004	1.1611035E-001	2.1197142E-001	-2.880043371063061E-006
3.1629551E+001	8.6130142E+000	2.8301179E-002	8.6130610E+000	-1.8826535E-001	6.197943635718548E+001	-6.1297358E-004	-6.8320543E-002	1.7779625E+005	1.9196259E+000	1.000000000000000E+000	10	1.3332140E-001	1.5478981E-002	-1.456325746945985E-003	-5.6216748E-005	1.1610211E-001	3.8149554E-004	1.1610274E-001	1.8826535E-001	-2.740895054696344E-005