EC-Lab ASCII FILE
Nb header lines : 60                          

Potentio Electrochemical Impedance Spectroscopy

Run on channel : 2 (SN 20919)
User : 
CE vs. WE compliance from -10 V to 10 V
Electrode connection : standard
Ewe ctrl range : min = -10.00 V, max = 10.00 V
Acquisition started on : 02/20/2020 14:50:33
Technique started on : 02/20/2020 14:50:34
Saved on :
	File : DE_65_6_60.mpr
	Directory : P:\Chemistry\Data\VMP3\Kyler\DOE\DE_65\60C\
	Host : 10.0.4.64
Device : VMP3 (SN 1432)
Address : USB
EC-Lab for windows v11.33 (software)
Internet server v11.32 (firmware)
Command interpretor v11.33 (firmware)
Electrode material : 
Initial state : 
Electrolyte : 
Comments : 
Electrode surface area : 0.001 cm²
Characteristic mass : 0.001 g
Equivalent Weight : 0.000 g/eq.
Density : 0.000 g/cm3
Record Analogic IN 1
Cycle Definition : Charge/Discharge alternance
Mode                Single sine         
E (V)               0.0000              
vs.                 Eoc                 
tE (h:m:s)          0:00:0.0000         
record              0                   
dI                  1.000               
unit dI             mA                  
dt (s)              0.000               
fi                  1.000               
unit fi             MHz                 
ff                  1.000               
unit ff             Hz                  
Nd                  20                  
Points              per decade          
spacing             Logarithmic         
Va (mV)             128.0               
pw                  0.50                
Na                  3                   
corr                0                   
E range min (V)     -10.000             
E range max (V)     10.000              
I Range             Auto                
Bandwidth           5                   
nc cycles           0                   
goto Ns'            0                   
nr cycles           0                   
inc. cycle          1                   

freq/Hz	Re(Z)/Ohm	-Im(Z)/Ohm	|Z|/Ohm	Phase(Z)/deg	time/s	<Ewe>/V	<I>/mA	Cs/µF	Cp/µF	cycle number	I Range	|Ewe|/V	|I|/A	(Q-Qo)/mA.h	Analog IN 1/V	Re(Y)/Ohm-1	Im(Y)/Ohm-1	|Y|/Ohm-1	Phase(Y)/deg	dq/mA.h	
1.0000186E+006	9.8727257E+001	4.2676708E+001	1.0755637E+002	-2.3377319E+001	1.847488194383914E+000	8.1341147E-002	-8.6485030E-004	3.7292473E-003	5.8712513E-004	1.000000000000000E+000	11	1.8581991E-003	1.7276514E-005	-1.223326228872692E-007	-5.3730176E-004	8.5342387E-003	3.6890847E-003	9.2974501E-003	2.3377319E+001	-1.223326228872692E-007
8.9124669E+005	1.0160577E+002	3.9821278E+001	1.0913051E+002	-2.1401176E+001	2.442471609305358E+000	8.1782922E-002	-8.2898157E-004	4.4844276E-003	5.9709721E-004	1.000000000000000E+000	11	3.0490432E-003	2.7939421E-005	-2.334237501110895E-007	-5.6216748E-005	8.5315127E-003	3.3436655E-003	9.1633406E-003	2.1401176E+001	-1.110911272238203E-007
7.9433269E+005	1.0546671E+002	3.7641006E+001	1.1198247E+002	-1.9641453E+001	3.037474170938367E+000	8.2137316E-002	-8.4830920E-004	5.3230003E-003	6.0142134E-004	1.000000000000000E+000	11	4.7989525E-003	4.2854499E-005	-4.777434342852050E-007	-2.1657841E-004	8.4103746E-003	3.0016580E-003	8.9299697E-003	1.9641453E+001	-2.443196841741155E-007
7.0794981E+005	1.0960332E+002	3.6001987E+001	1.1536478E+002	-1.8184076E+001	3.633484065911034E+000	8.2429372E-002	-8.6243276E-004	6.2444066E-003	6.0813176E-004	1.000000000000000E+000	11	7.1988050E-003	6.2400373E-005	-6.963202638081486E-007	-1.3639758E-004	8.2352590E-003	2.7050795E-003	8.6681573E-003	1.8184076E+001	-2.185768295229436E-007
6.3095681E+005	1.1355828E+002	3.4672108E+001	1.1873347E+002	-1.6978706E+001	4.228492307505803E+000	8.2696259E-002	-8.1652770E-004	7.2751218E-003	6.2037515E-004	1.000000000000000E+000	11	1.0306755E-002	8.6805805E-005	-7.929707120448357E-007	2.3964079E-005	8.0551282E-003	2.4594266E-003	8.4222248E-003	1.6978706E+001	-9.665044823668715E-008
5.6234225E+005	1.1722566E+002	3.3338047E+001	1.2187404E+002	-1.5875330E+001	4.824479482456809E+000	8.2889862E-002	-9.1075205E-004	8.4894449E-003	6.3523900E-004	1.000000000000000E+000	11	1.4161084E-002	1.1619442E-004	-1.042632689755313E-006	2.6450655E-004	7.8922398E-003	2.2444902E-003	8.2051931E-003	1.5875330E+001	-2.496619777104772E-007
5.0120619E+005	1.2058451E+002	3.2019100E+001	1.2476316E+002	-1.4870728E+001	5.421486390783684E+000	8.3043143E-002	-8.1076473E-004	9.9173263E-003	6.5319089E-004	1.000000000000000E+000	11	1.8784625E-002	1.5056228E-004	-1.099982921802115E-006	1.0414491E-004	7.7467365E-003	2.0570098E-003	8.0151865E-003	1.4870728E+001	-5.735023204680256E-008
4.4668572E+005	1.2356971E+002	3.0649851E+001	1.2731413E+002	-1.3930335E+001	6.017484605807113E+000	8.3156846E-002	-9.7486691E-004	1.1624912E-002	6.7374139E-004	1.000000000000000E+000	11	2.4174446E-002	1.8988032E-004	-1.370058397903146E-006	1.0414491E-004	7.6235784E-003	1.8909290E-003	7.8545883E-003	1.3930335E+001	-2.700754761010304E-007
3.9810347E+005	1.2623203E+002	2.9343596E+001	1.2959773E+002	-1.3086428E+001	6.613489887415199E+000	8.3237134E-002	-8.3548139E-004	1.3624196E-002	6.9846190E-004	1.000000000000000E+000	11	3.0334262E-002	2.3406476E-004	-1.173452340614555E-006	-2.9675924E-004	7.5157923E-003	1.7471029E-003	7.7161845E-003	1.3086428E+001	1.966060572885909E-007
3.5480997E+005	1.2870216E+002	2.7898708E+001	1.3169125E+002	-1.2230751E+001	7.209474315721309E+000	8.3248898E-002	-8.2302815E-004	1.6078303E-002	7.2159671E-004	1.000000000000000E+000	11	3.7388705E-002	2.8391182E-004	-1.764176203379369E-006	-7.7784422E-004	7.4211634E-003	1.6086820E-003	7.5935186E-003	1.2230751E+001	-5.907238627648136E-007
3.1622997E+005	1.3087473E+002	2.6497742E+001	1.3353024E+002	-1.1445749E+001	7.805488637386588E+000	8.3250917E-002	-8.0276805E-004	1.8993642E-002	7.4793986E-004	1.000000000000000E+000	11	4.5341026E-002	3.3955622E-004	-2.222174901980907E-006	3.4468737E-004	7.3400079E-003	1.4861054E-003	7.4889404E-003	1.1445749E+001	-4.579986986015383E-007
2.8183453E+005	1.3282378E+002	2.5093855E+001	1.3517343E+002	-1.0698560E+001	8.400492638960714E+000	8.3237529E-002	-8.5517450E-004	2.2503939E-002	7.7555148E-004	1.000000000000000E+000	11	5.4244656E-002	4.0129674E-004	-2.760583653184262E-006	1.0414491E-004	7.2693094E-003	1.3733610E-003	7.3979036E-003	1.0698560E+001	-5.384087512033551E-007
2.5118764E+005	1.3458102E+002	2.3715054E+001	1.3665451E+002	-9.9937191E+000	8.996483333961805E+000	8.3226420E-002	-8.3473086E-004	2.6717618E-002	8.0463337E-004	1.000000000000000E+000	11	6.4231932E-002	4.7003155E-004	-2.894470920300591E-006	1.0414491E-004	7.2066910E-003	1.2699194E-003	7.3177242E-003	9.9937191E+000	-1.338872671163292E-007
2.2387173E+005	1.3611732E+002	2.2350433E+001	1.3794009E+002	-9.3247442E+000	9.592489175585797E+000	8.3216049E-002	-9.4029092E-004	3.1807892E-002	8.3507557E-004	1.000000000000000E+000	11	7.5235352E-002	5.4542045E-004	-3.713211625660834E-006	-1.3639758E-004	7.1537276E-003	1.1746404E-003	7.2495239E-003	9.3247442E+000	-8.187407053602432E-007
1.9954350E+005	1.3752654E+002	2.1067780E+001	1.3913087E+002	-8.7094698E+000	1.018947800397291E+001	8.3229698E-002	-9.4642077E-004	3.7858535E-002	8.6806907E-004	1.000000000000000E+000	11	8.7246753E-002	6.2708405E-004	-4.637068710108805E-006	-2.1657841E-004	7.1045975E-003	1.0883580E-003	7.1874773E-003	8.7094698E+000	-9.238570844479707E-007
1.7783180E+005	1.3877078E+002	1.9850258E+001	1.4018332E+002	-8.1405659E+000	1.078548445893102E+001	8.3240509E-002	-9.0664549E-004	4.5086298E-002	9.0403279E-004	1.000000000000000E+000	11	1.0025001E-001	7.1513507E-004	-4.502506734311787E-006	-1.3639758E-004	7.0616365E-003	1.0101212E-003	7.1335165E-003	8.1405659E+000	1.345619757970175E-007
1.5848613E+005	1.3990993E+002	1.8725685E+001	1.4115750E+002	-7.6232204E+000	1.138048219386837E+001	8.3244950E-002	-9.4158179E-004	5.3627949E-002	9.4375375E-004	1.000000000000000E+000	11	1.1417324E-001	8.0883579E-004	-3.185601138361057E-006	-5.6216748E-005	7.0216735E-003	9.3978777E-004	7.0842854E-003	7.6232204E+000	1.316905595950730E-006
1.4125594E+005	1.4093089E+002	1.7653454E+001	1.4203226E+002	-7.1398640E+000	1.184049733568099E+001	8.3253823E-002	-9.0069423E-004	6.3823961E-002	9.8598225E-004	1.000000000000000E+000	11	1.2907244E-001	9.0875447E-004	-3.839022006477333E-006	1.8432573E-004	6.9860588E-003	8.7509607E-004	7.0406543E-003	7.1398640E+000	-6.534208681162759E-007
1.2590930E+005	1.4185880E+002	1.6688797E+001	1.4283708E+002	-6.7096481E+000	1.243747739071841E+001	8.3277293E-002	-8.7002898E-004	7.5742096E-002	1.0339640E-003	1.000000000000000E+000	11	1.2917234E-001	9.0433337E-004	-3.632279441640195E-006	-5.3730176E-004	6.9530336E-003	8.1798073E-004	7.0009832E-003	6.7096481E+000	2.067425648371382E-007
1.1220494E+005	1.4272249E+002	1.5803612E+001	1.4359479E+002	-6.3186016E+000	1.303347688567010E+001	8.3293289E-002	-9.9213002E-004	8.9753583E-002	1.0871443E-003	1.000000000000000E+000	11	1.2968346E-001	9.0312096E-004	-3.679230414635337E-006	-1.3639758E-004	6.9217365E-003	7.6644146E-004	6.9640409E-003	6.3186016E+000	-4.695097299514191E-008
1.0000371E+005	1.4350824E+002	1.5015072E+001	1.4429161E+002	-5.9730463E+000	1.362849115396966E+001	8.3322108E-002	-8.3527545E-004	1.0599286E-001	1.1477552E-003	1.000000000000000E+000	11	1.2977746E-001	8.9941104E-004	-3.848632863974975E-006	2.3964079E-005	6.8927845E-003	7.2118262E-004	6.9304099E-003	5.9730463E+000	-1.694024493396381E-007
8.9129305E+004	1.4423645E+002	1.4296354E+001	1.4494322E+002	-5.6605253E+000	1.422447296892642E+001	8.3340585E-002	-8.3155779E-004	1.2490341E-001	1.2151478E-003	1.000000000000000E+000	11	1.2952937E-001	8.9365593E-004	-3.658116585633252E-006	-2.1657841E-004	6.8656108E-003	6.8050215E-004	6.8992535E-003	5.6605253E+000	1.905162783417233E-007
7.9433273E+004	1.4491600E+002	1.3656357E+001	1.4555804E+002	-5.3834476E+000	1.481949326387257E+001	8.3361499E-002	-7.8862737E-004	1.4671780E-001	1.2914574E-003	1.000000000000000E+000	11	1.2951960E-001	8.8981405E-004	-3.143708009350424E-006	1.8432573E-004	6.8398081E-003	6.4455863E-004	6.8701115E-003	5.3834476E+000	5.144085762828276E-007
7.0794977E+004	1.4555185E+002	1.3085828E+001	1.4613890E+002	-5.1373610E+000	1.541449769210885E+001	8.3380483E-002	-7.4792880E-004	1.7179736E-001	1.3774860E-003	1.000000000000000E+000	11	1.2951499E-001	8.8624586E-004	-4.939167357568092E-006	-4.5712088E-004	6.8153166E-003	6.1273057E-004	6.8428051E-003	5.1373610E+000	-1.795459348217668E-006
6.3093828E+004	1.4614317E+002	1.2605681E+001	1.4668582E+002	-4.9298854E+000	1.601048526712111E+001	8.3385684E-002	-7.8007916E-004	2.0010914E-001	1.4778260E-003	1.000000000000000E+000	11	1.2932169E-001	8.8162365E-004	-4.760086441748879E-006	-5.6216748E-005	6.7920717E-003	5.8585487E-004	6.8172915E-003	4.9298854E+000	1.790809158192130E-007
5.6237012E+004	1.4673067E+002	1.2189716E+001	1.4723613E+002	-4.7489676E+000	1.646948478222475E+001	8.3365209E-002	-9.2615467E-004	2.3216903E-001	1.5913390E-003	1.000000000000000E+000	11	1.4068213E-001	9.5548650E-004	-4.351849355346834E-006	-2.1657841E-004	6.7684953E-003	5.6229578E-004	6.7918114E-003	4.7489676E+000	4.082370864020457E-007
5.0122477E+004	1.4728807E+002	1.1842592E+001	1.4776340E+002	-4.5969372E+000	1.706447297046543E+001	8.3385348E-002	-8.7300275E-004	2.6812717E-001	1.7222677E-003	1.000000000000000E+000	11	1.3038518E-001	8.8239159E-004	-5.142483323379161E-006	1.0414491E-004	6.7458055E-003	5.4239167E-004	6.7675756E-003	4.5969372E+000	-7.906339680323271E-007
4.4666715E+004	1.4783261E+002	1.1564105E+001	1.4828423E+002	-4.4728146E+000	1.752447435233626E+001	8.3373562E-002	-8.7690464E-004	3.0812296E-001	1.8739511E-003	1.000000000000000E+000	11	1.4017045E-001	9.4528234E-004	-5.168133023279046E-006	2.3964079E-005	6.7232670E-003	5.2592292E-004	6.7438055E-003	4.4728146E+000	-2.564969989988546E-008
3.9814063E+004	1.4836543E+002	1.1360586E+001	1.4879974E+002	-4.3786883E+000	1.812048787399544E+001	8.3387040E-002	-9.2875707E-004	3.5187054E-001	2.0510678E-003	1.000000000000000E+000	11	1.3017777E-001	8.7485206E-004	-4.974122010565932E-006	2.6450655E-004	6.7008263E-003	5.1309337E-004	6.7204419E-003	4.3786883E+000	1.940110127131144E-007
3.5480996E+004	1.4888934E+002	1.1218753E+001	1.4931142E+002	-4.3090711E+000	1.858047986918245E+001	8.3396681E-002	-8.7801984E-004	3.9983401E-001	2.2572668E-003	1.000000000000000E+000	11	1.3812266E-001	9.2506432E-004	-5.635691210342985E-006	1.0414491E-004	6.6784797E-003	5.0322077E-004	6.6974116E-003	4.3090711E+000	-6.615691997770531E-007
3.1621143E+004	1.4941206E+002	1.1125216E+001	1.4982568E+002	-4.2583833E+000	1.917547216409002E+001	8.3416238E-002	-8.0219546E-004	4.5241201E-001	2.4944711E-003	1.000000000000000E+000	11	1.2977970E-001	8.6620456E-004	-4.991328744528195E-006	-1.3639758E-004	6.6559971E-003	4.9560529E-004	6.6744229E-003	4.2583833E+000	6.443624658147905E-007
2.8188096E+004	1.4995053E+002	1.1104140E+001	1.5036111E+002	-4.2351384E+000	1.963549477260676E+001	8.3414800E-002	-8.0609776E-004	5.0847483E-001	2.7731175E-003	1.000000000000000E+000	11	1.3587621E-001	9.0366584E-004	-5.932656823550739E-006	1.8432573E-004	6.6324952E-003	4.9114972E-004	6.6506555E-003	4.2351384E+000	-9.413280790225443E-007
2.5116910E+004	1.5049385E+002	1.1128833E+001	1.5090477E+002	-4.2292538E+000	2.023148933422635E+001	8.3411485E-002	-8.3620532E-004	5.6938273E-001	3.0966890E-003	1.000000000000000E+000	11	1.2934573E-001	8.5713482E-004	-6.576851075854695E-006	-5.6216748E-005	6.6086510E-003	4.8870151E-004	6.6266959E-003	4.2292538E+000	-6.441942523039565E-007
2.2389027E+004	1.5103000E+002	1.1210116E+001	1.5144547E+002	-4.2449627E+000	2.069147434274782E+001	8.3411314E-002	-8.5386110E-004	6.3412488E-001	3.4744213E-003	1.000000000000000E+000	11	1.3378417E-001	8.8338181E-004	-6.195698478556652E-006	1.8432573E-004	6.5849228E-003	4.8876216E-004	6.6030370E-003	4.2449627E+000	3.811525972980435E-007
1.9948783E+004	1.5159341E+002	1.1333996E+001	1.5201653E+002	-4.2758069E+000	2.115149452458718E+001	8.3406448E-002	-7.6985749E-004	7.0391577E-001	3.9129579E-003	1.000000000000000E+000	11	1.3765272E-001	9.0551161E-004	-5.687271655498585E-006	-5.6216748E-005	6.5599228E-003	4.9045758E-004	6.5782322E-003	4.2758069E+000	5.084268230580672E-007
1.7786895E+004	1.5217128E+002	1.1527673E+001	1.5260730E+002	-4.3321433E+000	2.174648028620868E+001	8.3410479E-002	-8.0424116E-004	7.7620846E-001	4.4290544E-003	1.000000000000000E+000	11	1.2931025E-001	8.4733986E-004	-6.146580391666956E-006	1.8432573E-004	6.5340446E-003	4.9498380E-004	6.5527665E-003	4.3321433E+000	-4.593087361683710E-007
1.5847686E+004	1.5275916E+002	1.1753701E+001	1.5321066E+002	-4.3998232E+000	2.220649628140382E+001	8.3426923E-002	-7.1967964E-004	8.5443622E-001	5.0286446E-003	1.000000000000000E+000	11	1.3186893E-001	8.6070335E-004	-6.896922414559715E-006	1.0414491E-004	6.5077259E-003	5.0072203E-004	6.5269610E-003	4.3998232E+000	-7.503420228927596E-007
1.4121879E+004	1.5337610E+002	1.2032915E+001	1.5384738E+002	-4.4858747E+000	2.266548115652404E+001	8.3417058E-002	-8.3564804E-004	9.3660575E-001	5.7295207E-003	1.000000000000000E+000	11	1.3399428E-001	8.7095588E-004	-6.650752957457573E-006	2.3964079E-005	6.4800363E-003	5.0838251E-004	6.4999480E-003	4.4858747E+000	2.461694571021419E-007
1.2590932E+004	1.5400154E+002	1.2361149E+001	1.5449684E+002	-4.5890870E+000	2.312449440496857E+001	8.3417058E-002	-7.8379590E-004	1.0225945E+000	6.5460890E-003	1.000000000000000E+000	11	1.3572550E-001	8.7850011E-004	-6.708964694666469E-006	-2.9675924E-004	6.4518740E-003	5.1786867E-004	6.4726244E-003	4.5890870E+000	-5.821173720889552E-008
1.1217711E+004	1.5465601E+002	1.2729568E+001	1.5517900E+002	-4.7053466E+000	2.358448704014882E+001	8.3411038E-002	-7.9550501E-004	1.1145569E+000	7.5000417E-003	1.000000000000000E+000	11	1.3715261E-001	8.8383490E-004	-7.542440286439766E-006	-5.6216748E-005	6.4224526E-003	5.2862510E-004	6.4441711E-003	4.7053466E+000	-8.334755917732968E-007
1.0002229E+004	1.5532117E+002	1.3148595E+001	1.5587671E+002	-4.8387938E+000	2.404447743538185E+001	8.3420150E-002	-8.1985164E-004	1.2101632E+000	8.6107347E-003	1.000000000000000E+000	11	1.3828336E-001	8.8713289E-004	-7.389119106920487E-006	-2.9675924E-004	6.3924622E-003	5.4114900E-004	6.4153266E-003	4.8387938E+000	1.533211795192784E-007
8.9149297E+003	1.5601550E+002	1.3629210E+001	1.5660968E+002	-4.9925728E+000	2.452691916495678E+001	8.3433963E-002	-7.1540556E-004	1.3098800E+000	9.9205477E-003	1.000000000000000E+000	11	1.3919881E-001	8.8882633E-004	-7.249735070463632E-006	-5.6216748E-005	6.3610752E-003	5.5569108E-004	6.3853012E-003	4.9925728E+000	1.393840364568557E-007
7.9439976E+003	1.5673404E+002	1.4152365E+001	1.5737169E+002	-5.1595540E+000	2.505299001661479E+001	8.3446138E-002	-7.4198080E-004	1.4156373E+000	1.1448717E-002	1.000000000000000E+000	11	1.3992129E-001	8.8911346E-004	-8.003553537529013E-006	1.8432573E-004	6.3286358E-003	5.7144678E-004	6.3543832E-003	5.1595540E+000	-7.538184670653813E-007
7.0822334E+003	1.5747208E+002	1.4732613E+001	1.5815974E+002	-5.3448620E+000	2.562986004402046E+001	8.3453298E-002	-6.2954397E-004	1.5253522E+000	1.3235421E-002	1.000000000000000E+000	11	1.4049423E-001	8.8830589E-004	-7.553195786545984E-006	1.0414491E-004	6.2952307E-003	5.8896275E-004	6.3227215E-003	5.3448620E+000	4.503577509830285E-007
6.3077344E+003	1.5821906E+002	1.5375310E+001	1.5896437E+002	-5.5504241E+000	2.644853744286229E+001	8.3465382E-002	-8.1613520E-004	1.6410539E+000	1.5352215E-002	1.000000000000000E+000	11	1.2929150E-001	8.1333634E-004	-9.160704861679632E-006	2.3964079E-005	6.2612239E-003	6.0844910E-004	6.2907180E-003	5.5504241E+000	-1.607509075133648E-006
5.6210552E+003	1.5900345E+002	1.6086802E+001	1.5981516E+002	-5.7771082E+000	2.714929238284822E+001	8.3464555E-002	-7.9810771E-004	1.7600807E+000	1.7833479E-002	1.000000000000000E+000	11	1.2960613E-001	8.1097521E-004	-9.830097705269711E-006	-2.9675924E-004	6.2254486E-003	6.2984513E-004	6.2572290E-003	5.7771082E+000	-6.693928435900790E-007
5.0116035E+003	1.5981766E+002	1.6846777E+001	1.6070314E+002	-6.0174675E+000	2.790969876565941E+001	8.3465882E-002	-7.7469164E-004	1.8850660E+000	2.0716269E-002	1.000000000000000E+000	11	1.2985907E-001	8.0806803E-004	-1.037501319313499E-005	-5.6216748E-005	6.1883666E-003	6.5233110E-004	6.2226537E-003	6.0174675E+000	-5.449154878652836E-007
4.4664292E+003	1.6064102E+002	1.7683098E+001	1.6161136E+002	-6.2817335E+000	2.866966877509549E+001	8.3463237E-002	-8.8211114E-004	2.0151219E+000	2.4125386E-002	1.000000000000000E+000	11	1.3004345E-001	8.0466777E-004	-1.108189271103927E-005	1.0414491E-004	6.1505325E-003	6.7704043E-004	6.1876839E-003	6.2817335E+000	-7.068795179042764E-007
3.9812742E+003	1.6149995E+002	1.8613647E+001	1.6256908E+002	-6.5746050E+000	2.942970854452142E+001	8.3479434E-002	-7.6298293E-004	2.1476650E+000	2.8154878E-002	1.000000000000000E+000	11	1.3019164E-001	8.0083893E-004	-1.059294589424583E-005	1.0414491E-004	6.1107785E-003	7.0429663E-004	6.1512315E-003	6.5746050E+000	4.889468167934362E-007
3.5465955E+003	1.6239362E+002	1.9621925E+001	1.6357477E+002	-6.8896160E+000	3.018994610061054E+001	8.3461203E-002	-8.1371935E-004	2.2870038E+000	3.2909211E-002	1.000000000000000E+000	11	1.3029899E-001	7.9657143E-004	-1.061251596508211E-005	-1.3639758E-004	6.0692681E-003	7.3334610E-004	6.1134123E-003	6.8896160E+000	-1.957007083627801E-008
3.1610112E+003	1.6330275E+002	2.0738640E+001	1.6461433E+002	-7.2375374E+000	3.094970381671737E+001	8.3464444E-002	-8.8266958E-004	2.4278052E+000	3.8533553E-002	1.000000000000000E+000	11	1.3037667E-001	7.9201284E-004	-1.040219410260033E-005	1.0414491E-004	6.0264035E-003	7.6532335E-004	6.0748053E-003	7.2375374E+000	2.103218624817790E-007
2.8172952E+003	1.6425578E+002	2.1938812E+001	1.6571443E+002	-7.6076808E+000	3.170895067942911E+001	8.3468549E-002	-8.4717176E-004	2.5749846E+000	4.5131546E-002	1.000000000000000E+000	11	1.3043514E-001	7.8710791E-004	-1.037022223506938E-005	-1.3639758E-004	5.9813610E-003	7.9890009E-004	6.0344776E-003	7.6076808E+000	3.197186753095623E-008
2.5108032E+003	1.6525246E+002	2.3271797E+001	1.6688304E+002	-8.0160065E+000	3.246870810220571E+001	8.3479173E-002	-7.0202613E-004	2.7238145E+000	5.2967925E-002	1.000000000000000E+000	11	1.3047959E-001	7.8186247E-004	-9.946764313056419E-006	2.3964079E-005	5.9336717E-003	8.3561364E-004	5.9922207E-003	8.0160065E+000	4.234579220129586E-007
2.2378516E+003	1.6626241E+002	2.4731091E+001	1.6809169E+002	-8.4605598E+000	3.322892435162794E+001	8.3459057E-002	-8.4010937E-004	2.8757133E+000	6.2250040E-002	1.000000000000000E+000	11	1.3050365E-001	7.7638373E-004	-1.027710518745718E-005	1.0414491E-004	5.8843917E-003	8.7528763E-004	5.9491340E-003	8.4605598E+000	-3.303408744007650E-007
1.9956389E+003	1.6731995E+002	2.6309013E+001	1.6937570E+002	-8.9358959E+000	3.398866886772885E+001	8.3464853E-002	-8.4773049E-004	3.0313327E+000	7.3137566E-002	1.000000000000000E+000	11	1.3052234E-001	7.7060843E-004	-1.028850467925076E-005	2.3964079E-005	5.8323760E-003	9.1706967E-004	5.9040347E-003	8.9358959E+000	-1.139949179358047E-008
1.7782927E+003	1.6843639E+002	2.8056072E+001	1.7075702E+002	-9.4568081E+000	3.474892415714567E+001	8.3465077E-002	-8.4549998E-004	3.1899951E+000	8.6116552E-002	1.000000000000000E+000	11	1.3052993E-001	7.6441909E-004	-1.114370923071531E-005	1.8432573E-004	5.7766861E-003	9.6220965E-004	5.8562746E-003	9.4568081E+000	-8.552045514645416E-007
1.5855076E+003	1.6957788E+002	2.9957123E+001	1.7220361E+002	-1.0018339E+001	3.550868203325808E+001	8.3493955E-002	-7.0685858E-004	3.3508248E+000	1.0140687E-001	1.000000000000000E+000	11	1.3053843E-001	7.5804704E-004	-1.134866904610762E-005	1.8432573E-004	5.7185334E-003	1.0102191E-003	5.8070789E-003	1.0018339E+001	-2.049598153923094E-007
1.4118373E+003	1.7079474E+002	3.2060139E+001	1.7377773E+002	-1.0631362E+001	3.627021561606671E+001	8.3463050E-002	-8.6111180E-004	3.5161719E+000	1.1967755E-001	1.000000000000000E+000	11	1.3053474E-001	7.5115921E-004	-1.216209675423710E-005	3.4468737E-004	5.6556989E-003	1.0616397E-003	5.7544773E-003	1.0631362E+001	-8.134277081294883E-007
1.2587914E+003	1.7202245E+002	3.4350826E+001	1.7541864E+002	-1.1292746E+001	3.702994583881809E+001	8.3469234E-002	-8.8657386E-004	3.6806896E+000	1.4114064E-001	1.000000000000000E+000	11	1.3053554E-001	7.4413727E-004	-1.230981556590026E-005	3.4468737E-004	5.5902805E-003	1.1163122E-003	5.7006483E-003	1.1292746E+001	-1.477188116631531E-007
1.1217948E+003	1.7331761E+002	3.6859558E+001	1.7719374E+002	-1.2006250E+001	3.778745547475410E+001	8.3470993E-002	-8.0981816E-004	3.8490770E+000	1.6655591E-001	1.000000000000000E+000	11	1.3052845E-001	7.3664257E-004	-1.254930490806833E-005	1.8432573E-004	5.5200872E-003	1.1739602E-003	5.6435401E-003	1.2006250E+001	-2.394893421680730E-007
1.0003201E+003	1.7465111E+002	3.9597107E+001	1.7908362E+002	-1.2774214E+001	3.854668097756075E+001	8.3469197E-002	-8.4587373E-004	4.0180717E+000	1.9644134E-001	1.000000000000000E+000	11	1.3052002E-001	7.2882161E-004	-1.332568951575215E-005	-5.6216748E-005	5.4457746E-003	1.2346725E-003	5.5839838E-003	1.2774214E+001	-7.763846076838195E-007
8.9142657E+002	1.7600652E+002	4.2629974E+001	1.8109558E+002	-1.3615228E+001	3.930545600023470E+001	8.3473578E-002	-8.4624573E-004	4.1881232E+000	2.3207797E-001	1.000000000000000E+000	11	1.3051027E-001	7.2067068E-004	-1.404268874280064E-005	-4.5712088E-004	5.3667710E-003	1.2998685E-003	5.5219461E-003	1.3615228E+001	-7.169992270484917E-007
7.9423773E+002	1.7744363E+002	4.5942463E+001	1.8329472E+002	-1.4515863E+001	4.006495510297827E+001	8.3465077E-002	-8.2580239E-004	4.3616953E+000	2.7402109E-001	1.000000000000000E+000	11	1.3050605E-001	7.1200117E-004	-1.373541102473973E-005	-3.7694006E-004	5.2815396E-003	1.3674592E-003	5.4556946E-003	1.4515863E+001	3.072777180609087E-007
7.0750946E+002	1.7888925E+002	4.9634922E+001	1.8564749E+002	-1.5507299E+001	4.082745273914770E+001	8.3469927E-002	-8.4438664E-004	4.5321107E+000	3.2396421E-001	1.000000000000000E+000	11	1.3048938E-001	7.0288795E-004	-1.458289609424214E-005	-2.1657841E-004	5.1904628E-003	1.4401549E-003	5.3865528E-003	1.5507299E+001	-8.474850695024048E-007
6.3100964E+002	1.8036241E+002	5.3657696E+001	1.8817477E+002	-1.6567707E+001	4.158543693515821E+001	8.3473787E-002	-8.2338741E-004	4.7005873E+000	3.8220236E-001	1.000000000000000E+000	11	1.3048059E-001	6.9340103E-004	-1.530897755130233E-005	-5.6216748E-005	5.0935810E-003	1.5153370E-003	5.3142086E-003	1.6567707E+001	-7.260814570601924E-007
5.6233929E+002	1.8188283E+002	5.8130772E+001	1.9094646E+002	-1.7724173E+001	4.234192027780227E+001	8.3473504E-002	-8.4624713E-004	4.8687291E+000	4.5123687E-001	1.000000000000000E+000	11	1.3046944E-001	6.8327761E-004	-1.559761971808419E-005	1.0414491E-004	4.9884832E-003	1.5943473E-003	5.2370704E-003	1.7724173E+001	-2.886421667818554E-007
5.0144415E+002	1.8342479E+002	6.3067181E+001	1.9396423E+002	-1.8974573E+001	4.309916226039059E+001	8.3472073E-002	-8.0944964E-004	5.0326204E+000	5.3205639E-001	1.000000000000000E+000	11	1.3045999E-001	6.7259819E-004	-1.614954254681005E-005	-5.6216748E-005	4.8754504E-003	1.6763324E-003	5.1555899E-003	1.8974573E+001	-5.519228287258657E-007
4.4685895E+002	1.8499706E+002	6.8585815E+001	1.9730161E+002	-2.0341761E+001	4.385593264305498E+001	8.3467185E-002	-8.6278812E-004	5.1929646E+000	6.2751305E-001	1.000000000000000E+000	11	1.3044463E-001	6.6114328E-004	-1.604370639737075E-005	-5.6216748E-005	4.7522970E-003	1.7618668E-003	5.0683827E-003	2.0341761E+001	1.058361494393057E-007
3.9808920E+002	1.8661516E+002	7.4734421E+001	2.0102351E+002	-2.1824793E+001	4.461872499929450E+001	8.3470970E-002	-8.4048795E-004	5.3495722E+000	7.3937827E-001	1.000000000000000E+000	11	1.3044208E-001	6.4888969E-004	-1.589111164356776E-005	3.4468737E-004	4.6179923E-003	1.8493836E-003	4.9745427E-003	2.1824793E+001	1.525947538029846E-007
3.5465955E+002	1.8827002E+002	8.1603058E+001	2.0519420E+002	-2.3433659E+001	4.537896599539090E+001	8.3466999E-002	-8.2859345E-004	5.4992323E+000	8.6973065E-001	1.000000000000000E+000	11	1.3043047E-001	6.3564407E-004	-1.620497748254113E-005	-2.9675924E-004	4.4714771E-003	1.9381004E-003	4.8734322E-003	2.3433659E+001	-3.138658389733658E-007
3.1631586E+002	1.8994026E+002	8.9200493E+001	2.0984288E+002	-2.5155874E+001	4.613594347133767E+001	8.3471738E-002	-8.4327854E-004	5.6406860E+000	1.0192435E+000	1.000000000000000E+000	11	1.3042021E-001	6.2151364E-004	-1.618245062662592E-005	-1.3639758E-004	4.3134876E-003	2.0257172E-003	4.7654700E-003	2.5155874E+001	2.252685591520206E-008
2.8189429E+002	1.9168102E+002	9.7719673E+001	2.1515285E+002	-2.7012650E+001	4.689141217389260E+001	8.3466947E-002	-8.8769570E-004	5.7776585E+000	1.1918502E+000	1.000000000000000E+000	11	1.3041192E-001	6.0613616E-004	-1.677179218683159E-005	-5.6216748E-005	4.1408064E-003	2.1109979E-003	4.6478584E-003	2.7012650E+001	-5.893415602056668E-007
2.5104436E+002	1.9346669E+002	1.0727130E+002	2.2121594E+002	-2.9007013E+001	4.764789796981495E+001	8.3470099E-002	-8.6892571E-004	5.9099813E+000	1.3896978E+000	1.000000000000000E+000	11	1.3039877E-001	5.8946369E-004	-1.746485819646801E-005	2.6450655E-004	3.9534238E-003	2.1920511E-003	4.5204698E-003	2.9007013E+001	-6.930660096364182E-007
2.2392513E+002	1.9533899E+002	1.1781892E+002	2.2811975E+002	-3.1096325E+001	4.841072328607697E+001	8.3471008E-002	-8.9364336E-004	6.0325685E+000	1.6091872E+000	1.000000000000000E+000	11	1.3038866E-001	5.7157991E-004	-1.801962119416890E-005	-1.3639758E-004	3.7537313E-003	2.2640671E-003	4.3836627E-003	3.1096325E+001	-5.547629977008906E-007
1.9955299E+002	1.9727171E+002	1.2966472E+002	2.3607005E+002	-3.3316517E+001	4.917219913555891E+001	8.3466910E-002	-8.8528061E-004	6.1509194E+000	1.8556749E+000	1.000000000000000E+000	11	1.3038179E-001	5.5230130E-004	-1.779126139602967E-005	2.3964079E-005	3.5398351E-003	2.3266980E-003	4.2360309E-003	3.3316517E+001	2.283597981392347E-007
1.7778128E+002	1.9930359E+002	1.4292967E+002	2.4525662E+002	-3.5646030E+001	4.994027349198586E+001	8.3471827E-002	-8.6539530E-004	6.2634225E+000	2.1272328E+000	1.000000000000000E+000	11	1.3037476E-001	5.3158507E-004	-1.744236989431859E-005	-5.6216748E-005	3.3133982E-003	2.3761888E-003	4.0773619E-003	3.5646030E+001	3.488915017110737E-007
1.5842838E+002	2.0143570E+002	1.5769904E+002	2.5582285E+002	-3.8056515E+001	5.070671950179531E+001	8.3474271E-002	-8.6093519E-004	6.3702741E+000	2.4206810E+000	1.000000000000000E+000	11	1.3036031E-001	5.0957256E-004	-1.799750705984318E-005	-1.3639758E-004	3.0779233E-003	2.4096302E-003	3.9089550E-003	3.8056515E+001	-5.551371655245853E-007
1.4131134E+002	2.0365625E+002	1.7405481E+002	2.6790100E+002	-4.0518856E+001	5.170889730937779E+001	8.3461151E-002	-1.1042615E-004	6.4707870E+000	2.7313697E+000	1.000000000000000E+000	12	1.3107491E-001	4.8926618E-004	-1.747756414042993E-005	-2.1657841E-004	2.8375862E-003	2.4251433E-003	3.7327223E-003	4.0518856E+001	5.199429194132507E-007
1.2584569E+002	2.0603093E+002	1.9255882E+002	2.8200647E+002	-4.3064171E+001	5.246441462522489E+001	8.3462641E-002	-1.2017915E-004	6.5677767E+000	3.0621543E+000	1.000000000000000E+000	12	1.3098305E-001	4.6446826E-004	-1.779423414648692E-005	1.0414491E-004	2.5906831E-003	2.4212815E-003	3.5460179E-003	4.3064171E+001	-3.166700060569915E-007
1.1218996E+002	2.0851468E+002	2.1302673E+002	2.9809186E+002	-4.5613255E+001	5.320984463400964E+001	8.3462059E-002	-1.2072015E-004	6.6593528E+000	3.4009483E+000	1.000000000000000E+000	12	1.3090479E-001	4.3914249E-004	-1.824636001066311E-005	-5.3730176E-004	2.3465855E-003	2.3973635E-003	3.3546707E-003	4.5613255E+001	-4.521258641761931E-007
1.0003201E+002	2.1116000E+002	2.3581349E+002	3.1653839E+002	-4.8157036E+001	5.396968400344485E+001	8.3465770E-002	-1.0274284E-004	6.7470274E+000	3.7445273E+000	1.000000000000000E+000	12	1.3082182E-001	4.1328897E-004	-1.845992419464003E-005	-2.1657841E-004	2.1074577E-003	2.3535092E-003	3.1591745E-003	4.8157036E+001	-2.135641839769171E-007
8.9115974E+001	2.1393541E+002	2.6146481E+002	3.3783459E+002	-5.0709324E+001	5.473673030654027E+001	8.3468623E-002	-1.2338794E-004	6.8304815E+000	4.0913777E+000	1.000000000000000E+000	12	1.3075125E-001	3.8702742E-004	-1.839656370836908E-005	-2.9675924E-004	1.8744526E-003	2.2908940E-003	2.9600284E-003	5.0709324E+001	6.336048627094310E-008
7.9415527E+001	2.1691924E+002	2.9003488E+002	3.6217978E+002	-5.3206913E+001	5.550120468946989E+001	8.3465472E-002	-1.1797984E-004	6.9097838E+000	4.4311509E+000	1.000000000000000E+000	12	1.3068725E-001	3.6083531E-004	-1.852412837449811E-005	3.4468737E-004	1.6536731E-003	2.2110667E-003	2.7610597E-003	5.3206913E+001	-1.275646661290207E-007
7.0838745E+001	2.2004814E+002	3.2168216E+002	3.8974426E+002	-5.5625744E+001	5.625236896515707E+001	8.3462082E-002	-1.1020326E-004	6.9842906E+000	4.7579165E+000	1.000000000000000E+000	12	1.3062598E-001	3.3515817E-004	-1.843764975830507E-005	-5.6216748E-005	1.4486326E-003	2.1177151E-003	2.5657851E-003	5.5625744E+001	8.647861619303656E-008
6.3082302E+001	2.2336768E+002	3.5752902E+002	4.2156863E+002	-5.8004753E+001	5.703282865558867E+001	8.3471626E-002	-1.2993527E-004	7.0566940E+000	5.0755992E+000	1.000000000000000E+000	12	1.3056649E-001	3.0971586E-004	-1.858381727375025E-005	-2.9675924E-004	1.2568509E-003	2.0117532E-003	2.3720930E-003	5.8004753E+001	-1.461675154451848E-007
5.6241817E+001	2.2700325E+002	3.9719199E+002	4.5748438E+002	-6.0251160E+001	5.777635005084448E+001	8.3469369E-002	-7.9209894E-005	7.1245975E+000	5.3704262E+000	1.000000000000000E+000	12	1.3052371E-001	2.8530747E-004	-1.836774397163632E-005	-4.5712088E-004	1.0846248E-003	1.8977891E-003	2.1858669E-003	6.0251160E+001	2.160733021139304E-007
5.0144413E+001	2.3085747E+002	4.4155359E+002	4.9826172E+002	-6.2398083E+001	5.853320075347438E+001	8.3457030E-002	-1.1606212E-004	7.1881008E+000	5.6450257E+000	1.000000000000000E+000	12	1.3048312E-001	2.6187667E-004	-1.822817675034619E-005	1.8432573E-004	9.2988415E-004	1.7785594E-003	2.0069773E-003	6.2398083E+001	1.395672212901332E-007
4.4671219E+001	2.3499490E+002	4.9145880E+002	5.4475165E+002	-6.4444839E+001	5.929722729642526E+001	8.3464704E-002	-1.3724912E-004	7.2494526E+000	5.9004121E+000	1.000000000000000E+000	12	1.3044697E-001	2.3946137E-004	-1.832722798184032E-005	-1.3639758E-004	7.9188350E-004	1.6561132E-003	1.8356988E-003	6.4444839E+001	-9.905123149413472E-008
3.9808922E+001	2.3952467E+002	5.4703772E+002	5.9717865E+002	-6.6353424E+001	6.005969717270636E+001	8.3466366E-002	-1.2348621E-004	7.3084025E+000	6.1326537E+000	1.000000000000000E+000	12	1.3041306E-001	2.1838197E-004	-1.837869131989363E-005	1.8432573E-004	6.7164795E-004	1.5339412E-003	1.6745408E-003	6.6353424E+001	-5.146333805330553E-008
3.5465305E+001	2.4446986E+002	6.0937976E+002	6.5658905E+002	-6.8140419E+001	6.081012990165618E+001	8.3466254E-002	-1.2600386E-004	7.3642483E+000	6.3433285E+000	1.000000000000000E+000	12	1.3039091E-001	1.9858831E-004	-1.844669980796203E-005	2.3964079E-005	5.6707184E-004	1.4135160E-003	1.5230227E-003	6.8140419E+001	-6.800848806839569E-008
3.1629551E+001	2.4984622E+002	6.7843781E+002	7.2298065E+002	-6.9782913E+001	6.153446097605047E+001	8.3458982E-002	-1.2764521E-004	7.4168086E+000	6.5310616E+000	1.000000000000000E+000	12	1.3036782E-001	1.8031993E-004	-1.830188570889328E-005	-5.6216748E-005	4.7799075E-004	1.2979462E-003	1.3831629E-003	6.9782913E+001	1.448140990687506E-007
2.8170074E+001	2.5587943E+002	7.5650403E+002	7.9860669E+002	-7.1312439E+001	6.233976829433232E+001	8.3465546E-002	-1.1709012E-004	7.4682846E+000	6.7015843E+000	1.000000000000000E+000	12	1.3035253E-001	1.6322493E-004	-1.803178718869458E-005	-2.1657841E-004	4.0120794E-004	1.1861657E-003	1.2521809E-003	7.1312439E+001	2.700985201986952E-007
2.5104435E+001	2.6241101E+002	8.4344208E+002	8.8331995E+002	-7.2718079E+001	6.309592870358028E+001	8.3459020E-002	-1.4760091E-004	7.5164785E+000	6.8531289E+000	1.000000000000000E+000	12	1.3033858E-001	1.4755534E-004	-1.805261300738089E-005	2.3964079E-005	3.3631484E-004	1.0809839E-003	1.1320927E-003	7.2718079E+001	-2.082581868631197E-008
2.2385387E+001	2.6967697E+002	9.3984680E+002	9.7777179E+002	-7.3989845E+001	6.378244809617172E+001	8.3459787E-002	-1.3365172E-004	7.5648174E+000	6.9893627E+000	1.000000000000000E+000	12	1.3032547E-001	1.3328822E-004	-1.842422059532692E-005	-5.6216748E-005	2.8207779E-004	9.8306453E-004	1.0227335E-003	7.3989845E+001	-3.716075879460236E-007
1.9955299E+001	2.7786215E+002	1.0478268E+003	1.0840426E+003	-7.5148163E+001	6.454421621232177E+001	8.3466552E-002	-1.1429463E-004	7.6115375E+000	7.1114583E+000	1.000000000000000E+000	12	1.3031454E-001	1.2021165E-004	-1.854491596103192E-005	1.0414491E-004	2.3644861E-004	8.9165487E-004	9.2247297E-004	7.5148163E+001	-1.206953657050080E-007
1.7796129E+001	2.8695154E+002	1.1680857E+003	1.2028156E+003	-7.6198051E+001	6.538853430576273E+001	8.3459839E-002	-1.3881852E-004	7.6563168E+000	7.2205658E+000	1.000000000000000E+000	12	1.3030855E-001	1.0833627E-004	-1.861171017573835E-005	2.3964079E-005	1.9834003E-004	8.0737745E-004	8.3138264E-004	7.6198051E+001	-6.679421470643090E-008
1.5857576E+001	2.9734100E+002	1.3034569E+003	1.3369412E+003	-7.7149734E+001	6.610991426004330E+001	8.3460867E-002	-1.3262712E-004	7.6999273E+000	7.3190618E+000	1.000000000000000E+000	12	1.3030297E-001	9.7463497E-005	-1.815037864221030E-005	3.4468737E-004	1.6635279E-004	7.2924275E-004	7.4797607E-004	7.7149734E+001	4.613315335280557E-007
1.4118974E+001	3.0885660E+002	1.4555125E+003	1.4879210E+003	-7.8019669E+001	6.691225456478423E+001	8.3466500E-002	-1.2869228E-004	7.7446375E+000	7.4109378E+000	1.000000000000000E+000	12	1.3029246E-001	8.7566783E-005	-1.856545367135618E-005	1.8432573E-004	1.3950733E-004	6.5744010E-004	6.7207869E-004	7.8019669E+001	-4.150750291458824E-007
1.2600808E+001	3.2178510E+002	1.6220819E+003	1.6536914E+003	-7.8779465E+001	6.780287212712574E+001	8.3464622E-002	-1.3756006E-004	7.7866197E+000	7.4917898E+000	1.000000000000000E+000	12	1.3029192E-001	7.8788536E-005	-1.866097650946709E-005	2.6450655E-004	1.1766762E-004	5.9314905E-004	6.0470775E-004	7.8779465E+001	-9.552283811091158E-008
1.1224856E+001	3.3642154E+002	1.8108202E+003	1.8418059E+003	-7.9475349E+001	6.848691549294745E+001	8.3468713E-002	-1.3885651E-004	7.8300405E+000	7.5687981E+000	1.000000000000000E+000	12	1.3028599E-001	7.0738177E-005	-1.848867932428228E-005	2.3964079E-005	9.9173616E-005	5.3381111E-004	5.4294540E-004	7.9475349E+001	1.722971851848144E-007
1.0003201E+001	3.5254575E+002	2.0208988E+003	2.0514192E+003	-8.0104332E+001	6.924766824911057E+001	8.3462246E-002	-1.1994677E-004	7.8729339E+000	7.6404142E+000	1.000000000000000E+000	12	1.3028386E-001	6.3509135E-005	-1.824505614934552E-005	-5.6216748E-005	8.3773528E-005	4.8021504E-004	4.8746742E-004	8.0104332E+001	2.436231749367542E-007
8.9183798E+000	3.7216672E+002	2.2539033E+003	2.2844229E+003	-8.0623871E+001	7.009201796920388E+001	8.3461881E-002	-1.3551895E-004	7.9176970E+000	7.7075520E+000	1.000000000000000E+000	12	1.3028446E-001	5.7031673E-005	-1.872654802889909E-005	6.6541065E-004	7.1315575E-005	4.3189910E-004	4.3774734E-004	8.0623871E+001	-4.814918795535617E-007
7.9395342E+000	3.9348929E+002	2.5180525E+003	2.5486118E+003	-8.1118370E+001	7.103069036046509E+001	8.3471902E-002	-1.2878665E-004	7.9608665E+000	7.7711005E+000	1.000000000000000E+000	12	1.3028260E-001	5.1119041E-005	-1.833784232823604E-005	2.3964079E-005	6.0579496E-005	3.8766570E-004	3.9237045E-004	8.1118370E+001	3.887057006630440E-007
7.0765405E+000	4.1802115E+002	2.8112415E+003	2.8421506E+003	-8.1542305E+001	7.178401431621751E+001	8.3469406E-002	-1.6999402E-005	8.0002031E+000	7.8271399E+000	1.000000000000000E+000	13	1.3033044E-001	4.5856275E-005	-1.879472416218596E-005	-2.9675924E-004	5.1749237E-005	3.4801982E-004	3.5184625E-004	8.1542305E+001	-4.568818339499139E-007
6.3105822E+000	4.4341147E+002	3.1402859E+003	3.1714365E+003	-8.1962914E+001	7.240418741232133E+001	8.3461784E-002	3.0853400E-005	8.0312195E+000	7.8742251E+000	1.000000000000000E+000	13	1.3032743E-001	4.1094132E-005	-1.859683021088009E-005	1.0414491E-004	4.4085402E-005	3.1221745E-004	3.1531454E-004	8.1962914E+001	1.978939513058619E-007
5.6205034E+000	4.7359064E+002	3.5150537E+003	3.5468142E+003	-8.2326630E+001	7.308968317826657E+001	8.3471827E-002	-7.8690427E-005	8.0558796E+000	7.9122505E+000	1.000000000000000E+000	13	1.3031203E-001	3.6740585E-005	-1.850758955745833E-005	2.6450655E-004	3.7646627E-005	2.7941845E-004	2.8194315E-004	8.2326630E+001	8.924065342175963E-008
5.0144415E+000	5.1977191E+002	3.9130662E+003	3.9474358E+003	-8.2433701E+001	7.384718644086388E+001	8.3476357E-002	-1.1581724E-004	8.1111116E+000	7.9704823E+000	1.000000000000000E+000	13	1.3029619E-001	3.3007804E-005	-1.875058161520954E-005	1.8432573E-004	3.3356679E-005	2.5112330E-004	2.5332900E-004	8.2433701E+001	-2.429920577512034E-007
4.4693937E+000	5.4822583E+002	4.3576792E+003	4.3920293E+003	-8.2829475E+001	7.468850186749478E+001	8.3475575E-002	-6.6100520E-006	8.1717720E+000	8.0444489E+000	1.000000000000000E+000	13	1.3029808E-001	2.9666940E-005	-1.910742538442148E-005	4.2486819E-004	2.8420309E-005	2.2590447E-004	2.2768519E-004	8.2829475E+001	-3.568437692119416E-007
3.9778514E+000	6.0546619E+002	4.8746221E+003	4.9120801E+003	-8.2919678E+001	7.562520780533669E+001	8.3470136E-002	4.1265117E-005	8.2078724E+000	8.0831690E+000	1.000000000000000E+000	13	1.3028921E-001	2.6524243E-005	-1.888298007032649E-005	-2.1657841E-004	2.5093374E-005	2.0202731E-004	2.0357974E-004	8.2919678E+001	2.244453140949894E-007
3.5511365E+000	6.4659619E+002	5.4227295E+003	5.4611431E+003	-8.3200264E+001	7.666641724141664E+001	8.3475724E-002	-1.5511239E-005	8.2648468E+000	8.1489868E+000	1.000000000000000E+000	13	1.3028938E-001	2.3857529E-005	-1.852112030869679E-005	1.8432573E-004	2.1680331E-005	1.8182384E-004	1.8311184E-004	8.3200264E+001	3.618597616297037E-007
3.1603966E+000	7.2367206E+002	6.0565552E+003	6.0996362E+003	-8.3186272E+001	7.782822892328841E+001	8.3478615E-002	-5.2500960E-005	8.3148203E+000	8.1977816E+000	1.000000000000000E+000	13	1.3028675E-001	2.1359758E-005	-1.898771547265758E-005	-5.6216748E-005	1.9450650E-005	1.6278628E-004	1.6394421E-004	8.3186272E+001	-4.665951639607940E-007
2.8183618E+000	7.8275800E+002	6.7641108E+003	6.8092515E+003	-8.3398964E+001	7.912363247819849E+001	8.3474398E-002	2.8775812E-005	8.3485804E+000	8.2382574E+000	1.000000000000000E+000	13	1.3028282E-001	1.9133207E-005	-1.894704718564961E-005	-5.6216748E-005	1.6882195E-005	1.4588544E-004	1.4685902E-004	8.3398964E+001	4.066828700797327E-008
2.5136740E+000	8.5295337E+002	7.5208979E+003	7.5691108E+003	-8.3529671E+001	8.056774060011958E+001	8.3478197E-002	-1.4066177E-005	8.4186306E+000	8.3117247E+000	1.000000000000000E+000	13	1.3028216E-001	1.7212347E-005	-1.854381962659813E-005	-5.6216748E-005	1.4887968E-005	1.3127438E-004	1.3211592E-004	8.3529671E+001	4.032275590514796E-007
2.2398219E+000	9.5046350E+002	8.3805225E+003	8.4342480E+003	-8.3529541E+001	8.218237545012380E+001	8.3478861E-002	-1.3393841E-005	8.4788218E+000	8.3711472E+000	1.000000000000000E+000	13	1.3027886E-001	1.5446411E-005	-1.911644668292168E-005	-5.6216748E-005	1.3361111E-005	1.1780897E-004	1.1856422E-004	8.3529541E+001	-5.726270563235532E-007
1.9970604E+000	1.0572992E+003	9.3490986E+003	9.4086943E+003	-8.3547775E+001	8.398663270917859E+001	8.3479866E-002	1.0160176E-005	8.5243082E+000	8.4166632E+000	1.000000000000000E+000	13	1.3027894E-001	1.3846656E-005	-1.869932090328141E-005	1.0414491E-004	1.1943708E-005	1.0561146E-004	1.0628467E-004	8.3547775E+001	4.171257796402733E-007
1.7796129E+000	1.1674215E+003	1.0425747E+004	1.0490904E+004	-8.3610924E+001	8.600491069836426E+001	8.3483599E-002	-2.4932784E-005	8.5780268E+000	8.4718046E+000	1.000000000000000E+000	13	1.3027507E-001	1.2417907E-005	-1.881208235731608E-005	1.8432573E-004	1.0607233E-005	9.4728646E-005	9.5320669E-005	8.3610924E+001	-1.127614540346743E-007
1.5846854E+000	1.2933606E+003	1.1630435E+004	1.1702128E+004	-8.3654503E+001	8.826399037899682E+001	8.3479919E-002	1.6929840E-006	8.6353731E+000	8.5298882E+000	1.000000000000000E+000	13	1.3027686E-001	1.1132750E-005	-1.903486335668863E-005	1.0414491E-004	9.4447396E-006	8.4931009E-005	8.5454543E-005	8.3654503E+001	-2.227809993725437E-007
1.4122382E+000	1.4426217E+003	1.2945889E+004	1.3026020E+004	-8.3641495E+001	9.079317767239991E+001	8.3480820E-002	-1.4104830E-005	8.7052307E+000	8.5984583E+000	1.000000000000000E+000	13	1.3027647E-001	1.0001249E-005	-1.857891352552901E-005	-1.3639758E-004	8.5021520E-006	7.6297169E-005	7.6769422E-005	8.3641495E+001	4.559498311596151E-007
1.2596743E+000	1.6193180E+003	1.4408260E+004	1.4498971E+004	-8.3587540E+001	9.362195298014558E+001	8.3474785E-002	-7.1448571E-006	8.7690048E+000	8.6596241E+000	1.000000000000000E+000	13	1.3027692E-001	8.9852529E-006	-1.917853738730315E-005	2.6450655E-004	7.7029636E-006	6.8538910E-005	6.8970410E-005	8.3587540E+001	-5.996238617741358E-007
1.1224856E+000	1.8212303E+003	1.6050937E+004	1.6153930E+004	-8.3526581E+001	9.679001649061684E+001	8.3481766E-002	-6.1296741E-006	8.8336248E+000	8.7213421E+000	1.000000000000000E+000	13	1.3027537E-001	8.0646241E-006	-1.856325823748416E-005	2.6450655E-004	6.9792468E-006	6.1509760E-005	6.1904444E-005	8.3526581E+001	6.152791498189897E-007
1.0000638E+000	2.0472147E+003	1.7885986E+004	1.8002766E+004	-8.3470390E+001	1.003391625525255E+002	8.3470523E-002	-8.8537900E-006	8.8977365E+000	8.7826767E+000	1.000000000000000E+000	13	1.3027476E-001	7.2363750E-006	-1.914207468686610E-005	-5.6216748E-005	6.3166221E-006	5.5186702E-005	5.5547021E-005	8.3470390E+001	-5.788164493819485E-007