EC-Lab ASCII FILE
Nb header lines : 60                          

Potentio Electrochemical Impedance Spectroscopy

Run on channel : 4 (SN 4192)
User : 
CE vs. WE compliance from -10 V to 10 V
Electrode connection : standard
Ewe ctrl range : min = -10.00 V, max = 10.00 V
Acquisition started on : 02/20/2020 14:56:21
Technique started on : 02/20/2020 14:56:22
Saved on :
	File : DE_65_5_60.mpr
	Directory : P:\Chemistry\Data\VMP3\Kyler\DOE\DE_65\60C\
	Host : 10.0.4.64
Device : VMP3 (SN 1432)
Address : USB
EC-Lab for windows v11.33 (software)
Internet server v11.32 (firmware)
Command interpretor v11.33 (firmware)
Electrode material : 
Initial state : 
Electrolyte : 
Comments : 
Electrode surface area : 0.001 cm²
Characteristic mass : 0.001 g
Equivalent Weight : 0.000 g/eq.
Density : 0.000 g/cm3
Record Analogic IN 1
Cycle Definition : Charge/Discharge alternance
Mode                Single sine         
E (V)               0.0000              
vs.                 Eoc                 
tE (h:m:s)          0:00:0.0000         
record              0                   
dI                  1.000               
unit dI             mA                  
dt (s)              0.000               
fi                  1.000               
unit fi             MHz                 
ff                  1.000               
unit ff             Hz                  
Nd                  20                  
Points              per decade          
spacing             Logarithmic         
Va (mV)             128.0               
pw                  0.50                
Na                  3                   
corr                0                   
E range min (V)     -10.000             
E range max (V)     10.000              
I Range             Auto                
Bandwidth           5                   
nc cycles           0                   
goto Ns'            0                   
nr cycles           0                   
inc. cycle          1                   

freq/Hz	Re(Z)/Ohm	-Im(Z)/Ohm	|Z|/Ohm	Phase(Z)/deg	time/s	<Ewe>/V	<I>/mA	Cs/µF	Cp/µF	cycle number	I Range	|Ewe|/V	|I|/A	(Q-Qo)/mA.h	Analog IN 1/V	Re(Y)/Ohm-1	Im(Y)/Ohm-1	|Y|/Ohm-1	Phase(Y)/deg	dq/mA.h	
1.0000186E+006	1.0190274E+002	4.6553226E+001	1.1203291E+002	-2.4552805E+001	1.951478226023028E+000	-3.0500326E-002	3.3674957E-004	3.4187101E-003	5.9029710E-004	1.000000000000000E+000	11	3.3980797E-003	3.0331086E-005	1.443330916065154E-007	-6.4495736E-004	8.1188530E-003	3.7090150E-003	8.9259492E-003	2.4552805E+001	1.443330916065154E-007
8.9124669E+005	1.0468821E+002	4.2888012E+001	1.1313268E+002	-2.2277624E+001	2.547484680981142E+000	-3.0204205E-002	4.0282137E-004	4.1637658E-003	5.9838680E-004	1.000000000000000E+000	11	4.8010210E-003	4.2437085E-005	3.182060196296435E-007	-5.6476361E-004	8.1794038E-003	3.3508867E-003	8.8391788E-003	2.2277624E+001	1.738729280231281E-007
7.9433269E+005	1.0826904E+002	4.0067162E+001	1.1544507E+002	-2.0308020E+001	3.142476069246186E+000	-3.0035151E-002	9.4348856E-004	5.0006807E-003	6.0235913E-004	1.000000000000000E+000	11	6.6693113E-003	5.7770430E-005	5.295565457478612E-007	-4.8456987E-004	8.1236931E-003	3.0063381E-003	8.6621279E-003	2.0308020E+001	2.113505261182177E-007
7.0794981E+005	1.1234695E+002	3.7997940E+001	1.1859882E+002	-1.8686546E+001	3.738489484210731E+000	-2.9902751E-002	1.1815319E-003	5.9164008E-003	6.0731918E-004	1.000000000000000E+000	11	9.2284838E-003	7.7812612E-005	7.774190957794518E-007	-4.0437613E-004	7.9873102E-003	2.7014653E-003	8.4317876E-003	1.8686546E+001	2.478625500315906E-007
6.3095681E+005	1.1634492E+002	3.6317535E+001	1.2188152E+002	-1.7335964E+001	4.334474419156322E+000	-2.9790727E-002	1.4203193E-003	6.9455099E-003	6.1668188E-004	1.000000000000000E+000	11	1.2430496E-002	1.0198836E-004	9.077211578633069E-007	-8.3601190E-005	7.8319823E-003	2.4447851E-003	8.2046892E-003	1.7335964E+001	1.303020620838551E-007
5.6234225E+005	1.1885691E+002	3.4335995E+001	1.2371712E+002	-1.6113220E+001	4.929483834101120E+000	-2.9722942E-002	1.4919748E-003	8.2427058E-003	6.3490606E-004	1.000000000000000E+000	11	1.6138801E-002	1.3044922E-004	1.048211179084925E-006	-4.0437613E-004	7.7654184E-003	2.2433139E-003	8.0829561E-003	1.6113220E+001	1.404900212216185E-007
5.0120619E+005	1.2300288E+002	3.2986217E+001	1.2734913E+002	-1.5012035E+001	5.526472529134480E+000	-2.9673576E-002	1.8184229E-003	9.6265618E-003	6.4586877E-004	1.000000000000000E+000	11	2.0598322E-002	1.6174687E-004	1.223396256624659E-006	7.6786280E-005	7.5844373E-003	2.0339515E-003	7.8524295E-003	1.5012035E+001	1.751850775397341E-007
4.4668572E+005	1.2572446E+002	3.1327099E+001	1.2956862E+002	-1.3991620E+001	6.122491837450070E+000	-2.9603051E-002	1.8340582E-003	1.1373597E-002	6.6487282E-004	1.000000000000000E+000	11	2.5711022E-002	1.9843556E-004	1.273794276792614E-006	-1.6379493E-004	7.4889362E-003	1.8660381E-003	7.7179181E-003	1.3991620E+001	5.039802016795477E-008
3.9810347E+005	1.2826855E+002	2.9630043E+001	1.3164635E+002	-1.3007174E+001	6.718472372420365E+000	-2.9545669E-002	2.0017501E-003	1.3492484E-002	6.8350049E-004	1.000000000000000E+000	11	3.1626526E-002	2.4023854E-004	1.317589765384683E-006	-3.2418242E-004	7.4012075E-003	1.7096794E-003	7.5961091E-003	1.3007174E+001	4.379548859206909E-008
3.5480997E+005	1.3122044E+002	2.8092398E+001	1.3419385E+002	-1.2083790E+001	7.314488054049434E+000	-2.9471861E-002	1.8530436E-003	1.5967447E-002	6.9975806E-004	1.000000000000000E+000	11	3.8386036E-002	2.8604915E-004	1.692027264062845E-006	-8.0534484E-004	7.2867908E-003	1.5599964E-003	7.4519063E-003	1.2083790E+001	3.744374986781621E-007
3.1622997E+005	1.3342709E+002	2.6471401E+001	1.3602766E+002	-1.1221538E+001	7.909472428989830E+000	-2.9437764E-002	1.9935637E-003	1.9012541E-002	7.2001171E-004	1.000000000000000E+000	11	4.6054363E-002	3.3856614E-004	1.434433095772925E-006	-5.6476361E-004	7.2109015E-003	1.4306140E-003	7.3514460E-003	1.1221538E+001	-2.575941682899206E-007
2.8183453E+005	1.3553619E+002	2.4863928E+001	1.3779794E+002	-1.0395249E+001	8.505479603976710E+000	-2.9468188E-002	1.8768710E-003	2.2712043E-002	7.3945231E-004	1.000000000000000E+000	11	5.4677051E-002	3.9679147E-004	1.957381149584156E-006	-5.6476361E-004	7.1378890E-003	1.3094360E-003	7.2570024E-003	1.0395249E+001	5.229480538112308E-007
2.5118764E+005	1.3714418E+002	2.3261248E+001	1.3910287E+002	-9.6264172E+000	9.100474565551849E+000	-2.9475160E-002	1.9243315E-003	2.7238857E-002	7.6169771E-004	1.000000000000000E+000	11	6.4263761E-002	4.6198731E-004	2.882744887002951E-006	-5.6476361E-004	7.0876973E-003	1.2021558E-003	7.1889241E-003	9.6264172E+000	9.253637374187952E-007
2.2387173E+005	1.3843019E+002	2.1707638E+001	1.4012187E+002	-8.9121389E+000	9.695474807143910E+000	-2.9468803E-002	2.1123101E-003	3.2749772E-002	7.8599824E-004	1.000000000000000E+000	11	7.4871056E-002	5.3432811E-004	3.799877338253686E-006	7.6786280E-005	7.0504844E-003	1.1056068E-003	7.1366448E-003	8.9121389E+000	9.171324512507350E-007
1.9954350E+005	1.3975879E+002	2.0245718E+001	1.4121759E+002	-8.2426357E+000	1.029248179550632E+001	-2.9490428E-002	2.0307917E-003	3.9395753E-002	8.0972613E-004	1.000000000000000E+000	11	8.6466938E-002	6.1229581E-004	4.627746178820315E-006	-1.6379493E-004	7.0081200E-003	1.0152094E-003	7.0812707E-003	8.2426357E+000	8.278688405666292E-007
1.7783180E+005	1.4092229E+002	1.8887854E+001	1.4218242E+002	-7.6338744E+000	1.088748382378253E+001	-2.9499469E-002	2.0367538E-003	4.7383606E-002	8.3618338E-004	1.000000000000000E+000	11	9.8996095E-002	6.9626118E-004	4.804570375628019E-006	-3.4074546E-006	6.9708838E-003	9.3430956E-004	7.0332182E-003	7.6338744E+000	1.768241968077042E-007
1.5848613E+005	1.4178470E+002	1.7592445E+001	1.4287195E+002	-7.0730300E+000	1.148447174546891E+001	-2.9485617E-002	1.6589402E-003	5.7082459E-002	8.6548820E-004	1.000000000000000E+000	11	1.1242133E-001	7.8686775E-004	4.104086896559844E-006	-8.0534484E-004	6.9460105E-003	8.6185121E-004	6.9992747E-003	7.0730300E+000	-7.004834790681754E-007
1.4125594E+005	1.4265706E+002	1.6406986E+001	1.4359744E+002	-6.5607615E+000	1.194448774066404E+001	-2.9472735E-002	1.7732176E-003	6.8672776E-002	8.9649693E-004	1.000000000000000E+000	11	1.2688129E-001	8.8359020E-004	4.074771931550155E-006	7.6786280E-005	6.9183074E-003	7.9567451E-004	6.9639124E-003	6.5607615E+000	-2.931496500968905E-008
1.2590930E+005	1.4344508E+002	1.5287718E+001	1.4425743E+002	-6.0833578E+000	1.254147632900276E+001	-2.9455900E-002	1.8363108E-003	8.2683653E-002	9.2859985E-004	1.000000000000000E+000	11	1.2900354E-001	8.9425925E-004	5.482013873961276E-006	-3.4074546E-006	6.8930159E-003	7.3462591E-004	6.9320519E-003	6.0833578E+000	1.407241942411121E-006
1.1220494E+005	1.4414282E+002	1.4267365E+001	1.4484720E+002	-5.6527672E+000	1.313749097063555E+001	-2.9442776E-002	1.7639119E-003	9.9417850E-002	9.6456555E-004	1.000000000000000E+000	11	1.2963602E-001	8.9498470E-004	6.337282957315943E-006	-7.2515110E-004	6.8702544E-003	6.8002299E-004	6.9038272E-003	5.6527672E+000	8.552690833546670E-007
1.0000371E+005	1.4478905E+002	1.3347294E+001	1.4540295E+002	-5.2668924E+000	1.373248409220832E+001	-2.9423704E-002	1.7853151E-003	1.1923693E-001	1.0047333E-003	1.000000000000000E+000	11	1.2976001E-001	8.9241657E-004	7.513096336078080E-006	-6.4495736E-004	6.8484023E-003	6.3131598E-004	6.8774396E-003	5.2668924E+000	1.175813378762137E-006
8.9129305E+004	1.4534593E+002	1.2495730E+001	1.4588208E+002	-4.9137702E+000	1.432747497383389E+001	-2.9416937E-002	1.9211804E-003	1.4290190E-001	1.0484733E-003	1.000000000000000E+000	11	1.2953767E-001	8.8796153E-004	7.335271755340121E-006	-9.6573232E-004	6.8296585E-003	5.8716175E-004	6.8548517E-003	4.9137702E+000	-1.778245807379589E-007
7.9433273E+004	1.4585861E+002	1.1739018E+001	1.4633025E+002	-4.6013708E+000	1.492347190881264E+001	-2.9403310E-002	1.8342637E-003	1.7068128E-001	1.0984525E-003	1.000000000000000E+000	11	1.2958089E-001	8.8553730E-004	8.764352135240591E-006	-8.8553858E-004	6.8118316E-003	5.4823101E-004	6.8338574E-003	4.6013708E+000	1.429080379900470E-006
7.0794977E+004	1.4631152E+002	1.1061042E+001	1.4672903E+002	-4.3232942E+000	1.551848287039320E+001	-2.9398946E-002	1.8971708E-003	2.0324582E-001	1.1549990E-003	1.000000000000000E+000	11	1.2945022E-001	8.8223995E-004	8.116075618958955E-006	-4.0437613E-004	6.7958911E-003	5.1376427E-004	6.8152836E-003	4.3232942E+000	-6.482765162816361E-007
6.3093828E+004	1.4672900E+002	1.0465184E+001	1.4710173E+002	-4.0796108E+000	1.611348135196022E+001	-2.9398145E-002	1.8067189E-003	2.4103846E-001	1.2199571E-003	1.000000000000000E+000	11	1.2951520E-001	8.8044646E-004	8.769397276217610E-006	-1.6379493E-004	6.7807911E-003	4.8362784E-004	6.7980164E-003	4.0796108E+000	6.533216572586545E-007
5.6237012E+004	1.4711313E+002	9.9543943E+000	1.4744952E+002	-3.8710122E+000	1.657348129383172E+001	-2.9407578E-002	1.9770155E-003	2.8430405E-001	1.2957642E-003	1.000000000000000E+000	11	1.4071678E-001	9.5433858E-004	8.803524956111586E-006	-1.6379493E-004	6.7665093E-003	4.5785512E-004	6.7819818E-003	3.8710122E+000	3.412767989397588E-008
5.0122477E+004	1.4746584E+002	9.5156765E+000	1.4777254E+002	-3.6920636E+000	1.716847878877888E+001	-2.9382896E-002	1.9984180E-003	3.3369365E-001	1.3836932E-003	1.000000000000000E+000	11	1.3029680E-001	8.8173890E-004	8.348022761153212E-006	-1.6379493E-004	6.7531127E-003	4.3576487E-004	6.7671575E-003	3.6920636E+000	-4.555021949583731E-007
4.4666715E+004	1.4778812E+002	9.1349516E+000	1.4807018E+002	-3.5370171E+000	1.762748334390926E+001	-2.9389216E-002	2.1046912E-003	3.9005861E-001	1.4845922E-003	1.000000000000000E+000	11	1.3989970E-001	9.4482023E-004	8.526269565928184E-006	2.3717375E-004	6.7406902E-003	4.1664968E-004	6.7535546E-003	3.5370171E+000	1.782468047749718E-007
3.9814063E+004	1.4812064E+002	8.8460331E+000	1.4838455E+002	-3.4177482E+000	1.822247646548203E+001	-2.9387351E-002	1.8858176E-003	4.5189247E-001	1.6060343E-003	1.000000000000000E+000	11	1.3023481E-001	8.7768445E-004	9.226551903447317E-006	-2.4398866E-004	6.7272596E-003	4.0176415E-004	6.7392462E-003	3.4177482E+000	7.002823375191326E-007
3.5480996E+004	1.4835573E+002	8.6090641E+000	1.4860532E+002	-3.3211422E+000	1.868148454060429E+001	-2.9387873E-002	2.0780761E-003	5.2103680E-001	1.7486850E-003	1.000000000000000E+000	11	1.3798305E-001	9.2852028E-004	8.867146650778725E-006	-3.2418242E-004	6.7179329E-003	3.8984077E-004	6.7292345E-003	3.3211422E+000	-3.594052526685922E-007
3.1621143E+004	1.4872408E+002	8.4520884E+000	1.4896405E+002	-3.2526586E+000	1.927748187558609E+001	-2.9370405E-002	1.8817229E-003	5.9549558E-001	1.9170950E-003	1.000000000000000E+000	11	1.2967384E-001	8.7050424E-004	1.031286864143719E-005	-5.6476361E-004	6.7022145E-003	3.8089132E-004	6.7130290E-003	3.2526586E+000	1.445721990658462E-006
2.8188096E+004	1.4895499E+002	8.3434544E+000	1.4918848E+002	-3.2059731E+000	1.973749709743424E+001	-2.9382952E-002	2.0146100E-003	6.7671919E-001	2.1165558E-003	1.000000000000000E+000	11	1.3558307E-001	9.0880395E-004	1.101976581242181E-005	-1.1261198E-003	6.6924402E-003	3.7486537E-004	6.7029307E-003	3.2059731E+000	7.068971709846255E-007
2.5116910E+004	1.4932283E+002	8.3092203E+000	1.4955383E+002	-3.1849971E+000	2.033347813910223E+001	-2.9369380E-002	1.8696249E-003	7.6259440E-001	2.3540684E-003	1.000000000000000E+000	11	1.2930411E-001	8.6459913E-004	1.129674663636251E-005	-4.8456987E-004	6.6762273E-003	3.7150545E-004	6.6865557E-003	3.1849971E+000	2.769808239407009E-007
2.2389027E+004	1.4958177E+002	8.3287506E+000	1.4981346E+002	-3.1869528E+000	2.079347554760170E+001	-2.9374879E-002	1.9195053E-003	8.5350299E-001	2.6379288E-003	1.000000000000000E+000	11	1.3360354E-001	8.9179928E-004	1.097748486746827E-005	-1.6379493E-004	6.6646445E-003	3.7108912E-004	6.6749677E-003	3.1869528E+000	-3.192617688942430E-007
1.9948783E+004	1.4984033E+002	8.4071035E+000	1.5007599E+002	-3.2113321E+000	2.125248007607297E+001	-2.9385431E-002	1.8621817E-003	9.4898063E-001	2.9780206E-003	1.000000000000000E+000	11	1.3736603E-001	9.1530982E-004	1.043679572506032E-005	-4.8456987E-004	6.6528278E-003	3.7327077E-004	6.6632912E-003	3.2113321E+000	-5.406891424079543E-007
1.7786895E+004	1.5021115E+002	8.5469046E+000	1.5045412E+002	-3.2565765E+000	2.171247684457921E+001	-2.9384106E-002	2.0546257E-003	1.0469143E+000	3.3784751E-003	1.000000000000000E+000	11	1.4057410E-001	9.3433197E-004	1.062762454052831E-005	-8.8553858E-004	6.6358116E-003	3.7757281E-004	6.6465447E-003	3.2565765E+000	1.908288154679933E-007
1.5847686E+004	1.5058072E+002	8.7350206E+000	1.5083386E+002	-3.3199441E+000	2.230947255293722E+001	-2.9364290E-002	1.8845145E-003	1.1497154E+000	3.8558533E-003	1.000000000000000E+000	11	1.2958269E-001	8.5910870E-004	1.174016898169389E-005	-1.6379493E-004	6.6186846E-003	3.8394256E-004	6.6298111E-003	3.3199441E+000	1.112544441165583E-006
1.4121879E+004	1.5090309E+002	8.9892025E+000	1.5117059E+002	-3.4090452E+000	2.276847721476224E+001	-2.9362837E-002	1.9061033E-003	1.2537372E+000	4.4331676E-003	1.000000000000000E+000	11	1.3163204E-001	8.7075168E-004	1.259077521227462E-005	-5.6476361E-004	6.6033374E-003	3.9335669E-004	6.6150432E-003	3.4090452E+000	8.506062305807265E-007
1.2590932E+004	1.5121300E+002	9.2873707E+000	1.5149794E+002	-3.5146420E+000	2.322848120992421E+001	-2.9373331E-002	1.8923319E-003	1.3610356E+000	5.1149526E-003	1.000000000000000E+000	11	1.3327202E-001	8.7969523E-004	1.248186590235370E-005	-5.6476361E-004	6.5883347E-003	4.0464979E-004	6.6007497E-003	3.5146420E+000	-1.089093099209185E-007
1.1217711E+004	1.5157281E+002	9.6500034E+000	1.5187968E+002	-3.6428647E+000	2.368847709844704E+001	-2.9375009E-002	1.8973567E-003	1.4702406E+000	5.9353183E-003	1.000000000000000E+000	11	1.3464029E-001	8.8649307E-004	1.193350231058301E-005	-1.6379493E-004	6.5708556E-003	4.1833875E-004	6.5841591E-003	3.6428647E+000	-5.483635917706935E-007
1.0002229E+004	1.5193855E+002	1.0084188E+001	1.5227283E+002	-3.7971618E+000	2.414847933364217E+001	-2.9371299E-002	1.8954969E-003	1.5779105E+000	6.9202119E-003	1.000000000000000E+000	11	1.3574716E-001	8.9147332E-004	1.176739405278285E-005	-6.4495736E-004	6.5527433E-003	4.3490669E-004	6.5671597E-003	3.7971618E+000	-1.661082578001596E-007
8.9149297E+003	1.5232790E+002	1.0574590E+001	1.5269450E+002	-3.9710972E+000	2.463092402325128E+001	-2.9319435E-002	2.3006713E-003	1.6882575E+000	8.0969026E-003	1.000000000000000E+000	11	1.3663632E-001	8.9483452E-004	1.264314372452726E-005	-5.6476361E-004	6.5333005E-003	4.5354117E-004	6.5490240E-003	3.9710972E+000	8.757496717444151E-007
7.9439976E+003	1.5276346E+002	1.1128166E+001	1.5316824E+002	-4.1663938E+000	2.515698570155655E+001	-2.9298183E-002	2.4182969E-003	1.8003521E+000	9.5031410E-003	1.000000000000000E+000	11	1.3735774E-001	8.9677685E-004	1.226519352848199E-005	-2.4398866E-004	6.5115150E-003	4.7433606E-004	6.5287687E-003	4.1663938E+000	-3.779501960452762E-007
7.0822334E+003	1.5319597E+002	1.1756151E+001	1.5364639E+002	-4.3882375E+000	2.573386042230413E+001	-2.9278496E-002	2.4592418E-003	1.9115459E+000	1.1191037E-002	1.000000000000000E+000	11	1.3792895E-001	8.9770375E-004	1.283883805906387E-005	-4.0437613E-004	6.4893714E-003	4.9798982E-004	6.5084510E-003	4.3882375E+000	5.736445305818865E-007
6.3077344E+003	1.5367171E+002	1.2452878E+001	1.5417545E+002	-4.6328740E+000	2.636855751907569E+001	-2.9269118E-002	2.3081158E-003	2.0261753E+000	1.3218618E-002	1.000000000000000E+000	11	1.3839433E-001	8.9764182E-004	1.340887039680577E-005	-8.3601190E-005	6.4649247E-003	5.2388897E-004	6.4861169E-003	4.6328740E+000	5.700323377418996E-007
5.6210552E+003	1.5414540E+002	1.3257457E+001	1.5471446E+002	-4.9156942E+000	2.706924984572106E+001	-2.9270032E-002	2.2846654E-003	2.1357088E+000	1.5681971E-002	1.000000000000000E+000	11	1.3874426E-001	8.9677627E-004	1.372158073901664E-005	7.6786280E-005	6.4397459E-003	5.5385794E-004	6.4635198E-003	4.9156942E+000	3.127103422108723E-007
5.0116035E+003	1.5466608E+002	1.4126260E+001	1.5530984E+002	-5.2185693E+000	2.782967081519746E+001	-2.9261643E-002	2.3682306E-003	2.2481031E+000	1.8598273E-002	1.000000000000000E+000	11	1.3902348E-001	8.9513633E-004	1.376172063068629E-005	-4.8456987E-004	6.4120530E-003	5.8563793E-004	6.4387419E-003	5.2185693E+000	4.013989166964711E-008
4.4664292E+003	1.5521771E+002	1.5104524E+001	1.5595091E+002	-5.5580583E+000	2.858968845129129E+001	-2.9264588E-002	2.3133270E-003	2.3591342E+000	2.2130482E-002	1.000000000000000E+000	11	1.3924205E-001	8.9285820E-004	1.344881257616928E-005	-3.2418242E-004	6.3821273E-003	6.2105665E-004	6.4122742E-003	5.5580583E+000	-3.129080545170143E-007
3.9812742E+003	1.5579179E+002	1.6174309E+001	1.5662915E+002	-5.9272146E+000	2.934966718072246E+001	-2.9267646E-002	2.3280305E-003	2.4715664E+000	2.6355945E-002	1.000000000000000E+000	11	1.3941264E-001	8.9008111E-004	1.364238191442241E-005	-4.8456987E-004	6.3503752E-003	6.5929617E-004	6.3845078E-003	5.9272146E+000	1.935693382531304E-007
3.5465955E+003	1.5641786E+002	1.7349731E+001	1.5737714E+002	-6.3293252E+000	3.010993041680194E+001	-2.9267702E-002	2.2437191E-003	2.5865195E+000	3.1435326E-002	1.000000000000000E+000	11	1.3953838E-001	8.8664965E-004	1.360498325159036E-005	-7.2515110E-004	6.3154320E-003	7.0050213E-004	6.3541629E-003	6.3293252E+000	-3.739866283204837E-008
3.1610112E+003	1.5707437E+002	1.8634258E+001	1.5817583E+002	-6.7655692E+000	3.086969765292451E+001	-2.9256498E-002	2.4060125E-003	2.7019792E+000	3.7499543E-002	1.000000000000000E+000	11	1.3963199E-001	8.8276435E-004	1.388921657316516E-005	-5.6476361E-004	6.2780543E-003	7.4478664E-004	6.3220784E-003	6.7655692E+000	2.842333215748015E-007
2.8172952E+003	1.5780130E+002	2.0066080E+001	1.5907199E+002	-7.2468624E+000	3.162992840900552E+001	-2.9278478E-002	2.2520940E-003	2.8153036E+000	4.4798438E-002	1.000000000000000E+000	11	1.3971163E-001	8.7829184E-004	1.496955947545939E-005	7.6786280E-005	6.2362449E-003	7.9300348E-004	6.2864618E-003	7.2468624E+000	1.080342902294231E-006
2.5108032E+003	1.5855959E+002	2.1624298E+001	1.6002734E+002	-7.7660661E+000	3.238968999178178E+001	-2.9258361E-002	2.3040203E-003	2.9313350E+000	5.3525545E-002	1.000000000000000E+000	11	1.3976076E-001	8.7335549E-004	1.597809795779499E-005	-2.4398866E-004	6.1916169E-003	8.4441045E-004	6.2489319E-003	7.7660661E+000	1.008538482335603E-006
2.2378516E+003	1.5940738E+002	2.3321655E+001	1.6110435E+002	-8.3234491E+000	3.314996402786346E+001	-2.9278031E-002	2.2902479E-003	3.0495062E+000	6.3904829E-002	1.000000000000000E+000	11	1.3980490E-001	8.6779095E-004	1.615027436377649E-005	-8.3601190E-005	6.1417748E-003	8.9855527E-004	6.2071569E-003	8.3234491E+000	1.721764059814949E-007
1.9956389E+003	1.6027397E+002	2.5182171E+001	1.6224022E+002	-8.9292860E+000	3.390967843731050E+001	-2.9262930E-002	2.3619018E-003	3.1669776E+000	7.6298200E-002	1.000000000000000E+000	11	1.3982663E-001	8.6184934E-004	1.669385704183434E-005	-3.2418242E-004	6.0889996E-003	9.5670077E-004	6.1636996E-003	8.9292860E+000	5.435826780578467E-007
1.7782927E+003	1.6122337E+002	2.7227468E+001	1.6350630E+002	-9.5856876E+000	3.466992890008260E+001	-2.9263880E-002	2.2163596E-003	3.2870750E+000	9.1149680E-002	1.000000000000000E+000	11	1.3984248E-001	8.5527269E-004	1.642180041936808E-005	7.6786280E-005	6.0305786E-003	1.0184466E-003	6.1159721E-003	9.5856876E+000	-2.720566224662543E-007
1.5855076E+003	1.6225449E+002	2.9429182E+001	1.6490178E+002	-1.0280358E+001	3.542969530951086E+001	-2.9253347E-002	2.2783352E-003	3.4109364E+000	1.0863739E-001	1.000000000000000E+000	11	1.3985087E-001	8.4808585E-004	1.708850567952807E-005	-4.8456987E-004	5.9668627E-003	1.0822498E-003	6.0642161E-003	1.0280358E+001	6.667052601599917E-007
1.4118373E+003	1.6335614E+002	3.1877111E+001	1.6643732E+002	-1.1041866E+001	3.619120185231441E+001	-2.9270126E-002	2.1050617E-003	3.5363605E+000	1.2972182E-001	1.000000000000000E+000	11	1.3985646E-001	8.4029505E-004	1.686221216664611E-005	-8.8553858E-004	5.8970400E-003	1.1507409E-003	6.0082679E-003	1.1041866E+001	-2.262935128819655E-007
1.2587914E+003	1.6449065E+002	3.4499760E+001	1.6806964E+002	-1.1845341E+001	3.695096804841887E+001	-2.9276706E-002	2.1206953E-003	3.6647999E+000	1.5442012E-001	1.000000000000000E+000	11	1.3985151E-001	8.3210453E-004	1.732932003735267E-005	-8.3601190E-005	5.8232127E-003	1.2213426E-003	5.9499145E-003	1.1845341E+001	4.671078707065628E-007
1.1217948E+003	1.6569794E+002	3.7363251E+001	1.6985823E+002	-1.2707111E+001	3.770941211105674E+001	-2.9268242E-002	2.0222394E-003	3.7971876E+000	1.8372919E-001	1.000000000000000E+000	11	1.3985062E-001	8.2333729E-004	1.740769196210830E-005	-7.2515110E-004	5.7430672E-003	1.2950051E-003	5.8872625E-003	1.2707111E+001	7.837192475562980E-008
1.0003201E+003	1.6700307E+002	4.0484627E+001	1.7184013E+002	-1.3626681E+001	3.846868020052352E+001	-2.9263247E-002	2.1098999E-003	3.9299860E+000	2.1813336E-001	1.000000000000000E+000	11	1.3984671E-001	8.1381871E-004	1.715594265521819E-005	-3.2418242E-004	5.6555551E-003	1.3710109E-003	5.8193621E-003	1.3626681E+001	-2.517493068901067E-007
8.9142657E+002	1.6839369E+002	4.3882721E+001	1.7401761E+002	-1.4606197E+001	3.922742946314975E+001	-2.9265372E-002	2.1126927E-003	4.0685625E+000	2.5872695E-001	1.000000000000000E+000	11	1.3983035E-001	8.0354139E-004	1.701368830997510E-005	-4.8456987E-004	5.5608274E-003	1.4491293E-003	5.7465448E-003	1.4606197E+001	-1.422543452430953E-007
7.9423773E+002	1.6983852E+002	4.7614193E+001	1.7638660E+002	-1.5660830E+001	3.998695032595424E+001	-2.9272344E-002	2.0801213E-003	4.2085567E+000	3.0667254E-001	1.000000000000000E+000	11	1.3982043E-001	7.9269306E-004	1.770404540417884E-005	4.7775495E-004	5.4588984E-003	1.5304011E-003	5.6693652E-003	1.5660830E+001	6.903570942037434E-007
7.0750946E+002	1.7133757E+002	5.1668617E+001	1.7895868E+002	-1.6781229E+001	4.074944105549366E+001	-2.9271375E-002	2.1285110E-003	4.3537254E+000	3.6291856E-001	1.000000000000000E+000	11	1.3980791E-001	7.8123010E-004	1.786883887056724E-005	3.9756121E-004	5.3499173E-003	1.6133229E-003	5.5878819E-003	1.6781229E+001	1.647934663883954E-007
6.3100964E+002	1.7287758E+002	5.6113560E+001	1.8175639E+002	-1.7982681E+001	4.150741653147270E+001	-2.9273275E-002	2.1776464E-003	4.4948616E+000	4.2842278E-001	1.000000000000000E+000	11	1.3979802E-001	7.6915044E-004	1.803252580478632E-005	-7.2515110E-004	5.2331025E-003	1.6985895E-003	5.5018696E-003	1.7982681E+001	1.636869342190834E-007
5.6233929E+002	1.7446320E+002	6.1002525E+001	1.8482077E+002	-1.9272608E+001	4.226392619410763E+001	-2.9266043E-002	2.1960707E-003	4.6395288E+000	5.0543809E-001	1.000000000000000E+000	11	1.3978496E-001	7.5632712E-004	1.899013867600782E-005	-2.4398866E-004	5.1074284E-003	1.7858553E-003	5.4106475E-003	1.9272608E+001	9.576128712214997E-007
5.0144415E+002	1.7606210E+002	6.6364708E+001	1.8815456E+002	-2.0653393E+001	4.302116369668511E+001	-2.9275177E-002	2.2725635E-003	4.7825594E+000	5.9498399E-001	1.000000000000000E+000	11	1.3976769E-001	7.4283447E-004	1.885332859844655E-005	-5.6476361E-004	4.9732053E-003	1.8745960E-003	5.3147795E-003	2.0653393E+001	-1.368100775612713E-007
4.4685895E+002	1.7768604E+002	7.2334061E+001	1.9184511E+002	-2.2150707E+001	4.377791581267957E+001	-2.9268354E-002	2.4674272E-003	4.9238729E+000	6.9998878E-001	1.000000000000000E+000	11	1.3976051E-001	7.2850700E-004	2.011923697801993E-005	-4.8456987E-004	4.8278286E-003	1.9653568E-003	5.2125384E-003	2.2150707E+001	1.265908379573376E-006
3.9808920E+002	1.7937227E+002	7.8972618E+001	1.9598746E+002	-2.3762560E+001	4.454069019559392E+001	-2.9271150E-002	2.4800824E-003	5.0624785E+000	8.2197708E-001	1.000000000000000E+000	11	1.3974825E-001	7.1304687E-004	2.073747995930737E-005	-4.0437613E-004	4.6698046E-003	2.0559852E-003	5.1023671E-003	2.3762560E+001	6.182429812874409E-007
3.5465955E+002	1.8105231E+002	8.6341522E+001	2.0058614E+002	-2.5495874E+001	4.530093537835637E+001	-2.9275551E-002	2.4102887E-003	5.1974316E+000	9.6300018E-001	1.000000000000000E+000	11	1.3972867E-001	6.9660181E-004	2.152425050086782E-005	-6.4495736E-004	4.4998936E-003	2.1459414E-003	4.9853893E-003	2.5495874E+001	7.867705415604508E-007
3.1631586E+002	1.8271094E+002	9.4464355E+001	2.0568617E+002	-2.7339657E+001	4.605791965429671E+001	-2.9265018E-002	2.3901872E-003	5.3263683E+000	1.1234583E+000	1.000000000000000E+000	11	1.3971694E-001	6.7927240E-004	2.169550010962606E-005	-5.6476361E-004	4.3187127E-003	2.2328408E-003	4.8617753E-003	2.7339657E+001	1.712496087582424E-007
2.8189429E+002	1.8439700E+002	1.0359044E+002	2.1150232E+002	-2.9326380E+001	4.681338433016208E+001	-2.9268559E-002	2.4650060E-003	5.4502215E+000	1.3074445E+000	1.000000000000000E+000	11	1.3970250E-001	6.6052465E-004	2.226579960639356E-005	7.6786280E-005	4.1221483E-003	2.3157378E-003	4.7280807E-003	2.9326380E+001	5.702994967674975E-007
2.5104436E+002	1.8603458E+002	1.1379111E+002	2.1807632E+002	-3.1452728E+001	4.756989599278313E+001	-2.9265186E-002	2.5290269E-003	5.5713611E+000	1.5169140E+000	1.000000000000000E+000	11	1.3969484E-001	6.4057775E-004	2.209036522085080E-005	-4.8456987E-004	3.9118002E-003	2.3927169E-003	4.5855506E-003	3.1452728E+001	-1.754343855427581E-007
2.2392513E+002	1.8772072E+002	1.2505324E+002	2.2556015E+002	-3.3670219E+001	4.833273517570342E+001	-2.9269865E-002	2.4117711E-003	5.6835852E+000	1.7469783E+000	1.000000000000000E+000	11	1.3968500E-001	6.1928050E-004	2.198538589581343E-005	-3.4074546E-006	3.6896698E-003	2.4579340E-003	4.4334074E-003	3.3670219E+001	-1.049793250373729E-007
1.9955299E+002	1.8952011E+002	1.3783319E+002	2.3434134E+002	-3.6027447E+001	4.909421233183821E+001	-2.9274898E-002	2.4448994E-003	5.7863946E+000	2.0017869E+000	1.000000000000000E+000	11	1.3967392E-001	5.9602765E-004	2.220484412538483E-005	-8.3601190E-005	3.4510996E-003	2.5098976E-003	4.2672795E-003	3.6027447E+001	2.194582295714027E-007
1.7778128E+002	1.9134869E+002	1.5213272E+002	2.4445590E+002	-3.8486626E+001	4.986226154162432E+001	-2.9267460E-002	2.5100403E-003	5.8845258E+000	2.2790596E+000	1.000000000000000E+000	11	1.3965946E-001	5.7130738E-004	2.293453465245613E-005	-7.2515110E-004	3.2020232E-003	2.5457842E-003	4.0907175E-003	3.8486626E+001	7.296905270712965E-007
1.5842838E+002	1.9315033E+002	1.6803705E+002	2.5601465E+002	-4.1022640E+001	5.062872021809017E+001	-2.9269679E-002	2.4964530E-003	5.9783607E+000	2.5755062E+000	1.000000000000000E+000	11	1.3964918E-001	5.4547342E-004	2.332730273801846E-005	-6.4495736E-004	2.9469028E-003	2.5637485E-003	3.9060265E-003	4.1022640E+001	3.927680855623384E-007
1.4131134E+002	1.9495746E+002	1.8565021E+002	2.6921072E+002	-4.3599186E+001	5.138188225385966E+001	-2.9278869E-002	2.2785107E-003	6.0666323E+000	2.8850534E+000	1.000000000000000E+000	11	1.3963977E-001	5.1870063E-004	2.415470265233307E-005	-3.2418242E-004	2.6900179E-003	2.5615967E-003	3.7145624E-003	4.3599186E+001	8.273999143146094E-007
1.2584569E+002	1.9725458E+002	2.0608888E+002	2.8527530E+002	-4.6254730E+001	5.238739496821654E+001	-2.9277377E-002	2.8525633E-004	6.1365914E+000	3.2026391E+000	1.000000000000000E+000	12	1.4032429E-001	4.9189082E-004	2.327682226673480E-005	-4.8456987E-004	2.4238110E-003	2.5323646E-003	3.5053859E-003	4.6254730E+001	-8.778803855982738E-007
1.1218996E+002	1.9936417E+002	2.2848137E+002	3.0323227E+002	-4.8893284E+001	5.313285631034523E+001	-2.9275456E-002	2.8678481E-004	6.2089105E+000	3.5250568E+000	1.000000000000000E+000	12	1.4023057E-001	4.6245265E-004	2.388393789519938E-005	1.5698001E-004	2.1681846E-003	2.4848487E-003	3.2978021E-003	4.8893284E+001	6.071156284645764E-007
1.0003201E+002	2.0153564E+002	2.5342838E+002	3.2379401E+002	-5.1506981E+001	5.389268738645478E+001	-2.9273164E-002	2.9742080E-004	6.2780666E+000	3.8459070E+000	1.000000000000000E+000	12	1.4013878E-001	4.3280225E-004	2.403916393067549E-005	-4.8456987E-004	1.9222692E-003	2.4172282E-003	3.0883832E-003	5.1506981E+001	1.552260354761108E-007
8.9115974E+001	2.0387793E+002	2.8159198E+002	3.4764963E+002	-5.4094749E+001	5.465975752954546E+001	-2.9281497E-002	2.7758145E-004	6.3422632E+000	4.1610346E+000	1.000000000000000E+000	12	1.4005300E-001	4.0285676E-004	2.385667954232405E-005	-1.6379493E-004	1.6868898E-003	2.3298974E-003	2.8764594E-003	5.4094749E+001	-1.824843883514400E-007
7.9415527E+001	2.0636685E+002	3.1308685E+002	3.7498087E+002	-5.6609680E+001	5.542424753916566E+001	-2.9277489E-002	2.9769971E-004	6.4010301E+000	4.4623260E+000	1.000000000000000E+000	12	1.3997807E-001	3.7329388E-004	2.419881978223242E-005	7.6786280E-005	1.4676474E-003	2.2266225E-003	2.6668028E-003	5.6609680E+001	3.421402399083781E-007
7.0838745E+001	2.0903377E+002	3.4796860E+002	4.0592764E+002	-5.9005669E+001	5.617536050817580E+001	-2.9282561E-002	2.8514356E-004	6.4566793E+000	4.7445178E+000	1.000000000000000E+000	12	1.3991302E-001	3.4467477E-004	2.408723639961034E-005	-2.4398866E-004	1.2685839E-003	2.1117514E-003	2.4634933E-003	5.9005669E+001	-1.115833826220796E-007
6.3082302E+001	2.1191235E+002	3.8765189E+002	4.4179276E+002	-6.1336498E+001	5.695582985194051E+001	-2.9284928E-002	2.8139900E-004	6.5083475E+000	5.0109181E+000	1.000000000000000E+000	12	1.3985097E-001	3.1655334E-004	2.421148599138865E-005	-3.2418242E-004	1.0857232E-003	1.9861166E-003	2.2635048E-003	6.1336498E+001	1.242495917783034E-007
5.6241817E+001	2.1503711E+002	4.3157703E+002	4.8218222E+002	-6.3514809E+001	5.770033319390495E+001	-2.9279651E-002	2.5638024E-004	6.5569592E+000	5.2528710E+000	1.000000000000000E+000	12	1.3980512E-001	2.8994252E-004	2.404888975958683E-005	3.1736746E-004	9.2489203E-004	1.8562477E-003	2.0739047E-003	6.3514809E+001	-1.625962318018212E-007
5.0144413E+001	2.1849403E+002	4.8063077E+002	5.2796362E+002	-6.5553528E+001	5.845718448320986E+001	-2.9282020E-002	2.8989112E-004	6.6036797E+000	5.4726934E+000	1.000000000000000E+000	12	1.3976438E-001	2.6472352E-004	2.393764944906515E-005	-2.4398866E-004	7.8384741E-004	1.7242633E-003	1.8940698E-003	6.5553528E+001	-1.112403105216814E-007
4.4671219E+001	2.2228305E+002	5.3598859E+002	5.8025299E+002	-6.7475433E+001	5.922123934616684E+001	-2.9285114E-002	2.9096988E-004	6.6471701E+000	5.6716981E+000	1.000000000000000E+000	12	1.3972592E-001	2.4080173E-004	2.405782626770088E-005	-2.4398866E-004	6.6019397E-004	1.5919183E-003	1.7233862E-003	6.7475433E+001	1.201768186357310E-007
3.9808922E+001	2.2642911E+002	5.9774329E+002	6.3919263E+002	-6.9252983E+001	5.998371111576125E+001	-2.9285263E-002	2.5857569E-004	6.6884427E+000	5.8491249E+000	1.000000000000000E+000	12	1.3969405E-001	2.1854765E-004	2.417291957635381E-005	-2.4398866E-004	5.5420282E-004	1.4630232E-003	1.5644736E-003	6.9252983E+001	1.150933086529301E-007
3.5465305E+001	2.3101317E+002	6.6689667E+002	7.0577490E+002	-7.0893898E+001	6.073411056472105E+001	-2.9279651E-002	3.0043270E-004	6.7291141E+000	6.0081749E+000	1.000000000000000E+000	12	1.3966471E-001	1.9788847E-004	2.423785764934534E-005	-6.4495736E-004	4.6377187E-004	1.3388321E-003	1.4168824E-003	7.0893898E+001	6.493807299153342E-008
3.1629551E+001	2.3597275E+002	7.4335730E+002	7.7991229E+002	-7.2388382E+001	6.145844499909435E+001	-2.9281367E-002	2.8886448E-004	6.7690773E+000	6.1494064E+000	1.000000000000000E+000	12	1.3964941E-001	1.7905784E-004	2.411701005429334E-005	-4.8456987E-004	3.8794513E-004	1.2220981E-003	1.2821954E-003	7.2388382E+001	-1.208475950520050E-007
2.8170074E+001	2.4192859E+002	8.3024554E+002	8.6477576E+002	-7.3754196E+001	6.226376234405325E+001	-2.9273799E-002	2.6412602E-004	6.8049603E+000	6.2723699E+000	1.000000000000000E+000	12	1.3962781E-001	1.6146130E-004	2.392097839832261E-005	-7.2515110E-004	3.2350433E-004	1.1101956E-003	1.1563691E-003	7.3754196E+001	-1.960316559707282E-007
2.5104435E+001	2.4834013E+002	9.2681921E+002	9.5951379E+002	-7.5000023E+001	6.301991424662992E+001	-2.9276837E-002	2.9525312E-004	6.8402925E+000	6.3820806E+000	1.000000000000000E+000	12	1.3961069E-001	1.4550150E-004	2.399070582221531E-005	2.3717375E-004	2.6973939E-004	1.0066828E-003	1.0421945E-003	7.5000023E+001	6.972742389269946E-008
2.2385387E+001	2.5538802E+002	1.0336326E+003	1.0647156E+003	-7.6121429E+001	6.370644358589198E+001	-2.9277433E-002	2.7509662E-004	6.8784304E+000	6.4826784E+000	1.000000000000000E+000	12	1.3959916E-001	1.3111404E-004	2.435816423357270E-005	-5.6476361E-004	2.2528549E-004	9.1179868E-004	9.3921798E-004	7.6121429E+001	3.674584113573982E-007
1.9955299E+001	2.6349713E+002	1.1535314E+003	1.1832435E+003	-7.7132889E+001	6.446822218204034E+001	-2.9278813E-002	2.8597488E-004	6.9140496E+000	6.5711746E+000	1.000000000000000E+000	12	1.3959029E-001	1.1797258E-004	2.452954033696425E-005	-6.4495736E-004	1.8820347E-004	8.2391250E-004	8.4513455E-004	7.7132889E+001	1.713761033915427E-007
1.7796129E+001	2.7250140E+002	1.2869930E+003	1.3155258E+003	-7.8045044E+001	6.531253723546979E+001	-2.9289886E-002	2.1964042E-004	6.9489374E+000	6.6507721E+000	1.000000000000000E+000	12	1.3958327E-001	1.0610456E-004	2.461503987066256E-005	5.5794866E-004	1.5745996E-004	7.4366521E-004	7.6015235E-004	7.8045044E+001	8.549953369831447E-008
1.5857576E+001	2.8264188E+002	1.4371011E+003	1.4646317E+003	-7.8873367E+001	6.603494284316548E+001	-2.9289849E-002	2.9635057E-004	6.9838676E+000	6.7237840E+000	1.000000000000000E+000	12	1.3957724E-001	9.5298521E-005	2.418326259537823E-005	-4.8456987E-004	1.3175877E-004	6.6993159E-004	6.8276550E-004	7.8873367E+001	-4.317772752843274E-007
1.4118974E+001	2.9467728E+002	1.6066697E+003	1.6334694E+003	-7.9606964E+001	6.683725813459023E+001	-2.9276948E-002	2.6567001E-004	7.0160136E+000	6.7876840E+000	1.000000000000000E+000	12	1.3957155E-001	8.5444852E-005	2.461604306130756E-005	-1.6379493E-004	1.1043953E-004	6.0214987E-004	6.1219389E-004	7.9606964E+001	4.327804659293299E-007
1.2600808E+001	3.0771191E+002	1.7920494E+003	1.8182760E+003	-8.0256783E+001	6.772785812357324E+001	-2.9285217E-002	2.4315780E-004	7.0480957E+000	6.8462400E+000	1.000000000000000E+000	12	1.3956721E-001	7.6757991E-005	2.474494174851937E-005	-5.6476361E-004	9.3073242E-005	5.4203882E-004	5.4997153E-004	8.0256783E+001	1.288986872118054E-007
1.1224856E+001	3.2292474E+002	2.0028486E+003	2.0287146E+003	-8.0840866E+001	6.841193639606354E+001	-2.9282337E-002	2.7157456E-004	7.0793142E+000	6.8999438E+000	1.000000000000000E+000	12	1.3956261E-001	6.8793612E-005	2.459466721230814E-005	-5.6476361E-004	7.8462035E-005	4.8663822E-004	4.9292296E-004	8.0840866E+001	-1.502745362112255E-007
1.0003201E+001	3.3948395E+002	2.2348672E+003	2.2605046E+003	-8.1362610E+001	6.917268003221398E+001	-2.9278515E-002	3.0465735E-004	7.1191707E+000	6.9586029E+000	1.000000000000000E+000	12	1.3956243E-001	6.1739498E-005	2.440609451262304E-005	1.5698001E-004	6.6436740E-005	4.3736189E-004	4.4237910E-004	8.1362610E+001	-1.885726996851086E-007
8.9183798E+000	3.5858688E+002	2.4941907E+003	2.5198357E+003	-8.1818710E+001	7.001703065895708E+001	-2.9286904E-002	2.2945607E-004	7.1549153E+000	7.0100222E+000	1.000000000000000E+000	12	1.3956231E-001	5.5385481E-005	2.489350416056403E-005	-3.2418242E-004	5.6474200E-005	3.9281242E-004	3.9685128E-004	8.1818710E+001	4.874096479409966E-007
7.9395342E+000	3.8057559E+002	2.7891250E+003	2.8149700E+003	-8.2229988E+001	7.125767285125039E+001	-2.9281748E-002	2.2738499E-005	7.1871572E+000	7.0557885E+000	1.000000000000000E+000	13	1.3962170E-001	4.9599712E-005	2.504406765581628E-005	-9.6573232E-004	4.8027865E-005	3.5198199E-004	3.5524357E-004	8.2229988E+001	1.505634952522499E-007
7.0765405E+000	4.0530902E+002	3.1136755E+003	3.1399443E+003	-8.2583473E+001	7.181604626440094E+001	-2.9294791E-002	2.0102203E-005	7.2231359E+000	7.1027837E+000	1.000000000000000E+000	13	1.3960308E-001	4.4460368E-005	2.498510099802717E-005	6.3814240E-004	4.1109532E-005	3.1581259E-004	3.1847699E-004	8.2583473E+001	-5.896665778911479E-008
6.3105822E+000	4.3205478E+002	3.4789609E+003	3.5056868E+003	-8.2920639E+001	7.243617810719297E+001	-2.9276464E-002	-4.1274852E-005	7.2493844E+000	7.1392736E+000	1.000000000000000E+000	13	1.3959733E-001	3.9820250E-005	2.479073807117225E-005	3.9756121E-004	3.5155452E-005	2.8307617E-004	2.8525080E-004	8.2920639E+001	-1.943629268549152E-007
5.6205034E+000	4.5809164E+002	3.8973411E+003	3.9241707E+003	-8.3296242E+001	7.312264635316387E+001	-2.9292926E-002	1.2091266E-004	7.2656846E+000	7.1666727E+000	1.000000000000000E+000	13	1.3958368E-001	3.5570236E-005	2.468537771878964E-005	-3.2418242E-004	2.9747913E-005	2.5308866E-004	2.5483093E-004	8.3296242E+001	-1.053603523826074E-007
5.0144415E+000	5.1396112E+002	4.3478262E+003	4.3780986E+003	-8.3258293E+001	7.388016470908769E+001	-2.9301446E-002	1.7161581E-004	7.3000431E+000	7.1994390E+000	1.000000000000000E+000	13	1.3956997E-001	3.1879128E-005	2.489782346956132E-005	-4.0437613E-004	2.6813845E-005	2.2683031E-004	2.2840966E-004	8.3258293E+001	2.124457507716724E-007
4.4693937E+000	5.3901672E+002	4.8345068E+003	4.8644624E+003	-8.3638161E+001	7.472153176236316E+001	-2.9277340E-002	3.5194247E-005	7.3657899E+000	7.2753515E+000	1.000000000000000E+000	13	1.3957305E-001	2.8692391E-005	2.526688068771394E-005	-3.2418242E-004	2.2778884E-005	2.0430663E-004	2.0557256E-004	8.3638161E+001	3.690572181526226E-007
3.9778514E+000	6.0049359E+002	5.4210308E+003	5.4541880E+003	-8.3679054E+001	7.565818644690444E+001	-2.9269520E-002	-7.2850278E-005	7.3805666E+000	7.2911029E+000	1.000000000000000E+000	13	1.3956541E-001	2.5588668E-005	2.508142813293186E-005	7.6786280E-005	2.0185895E-005	1.8223074E-004	1.8334534E-004	8.3679054E+001	-1.854525547820831E-007
3.5511365E+000	6.3874060E+002	6.0209233E+003	6.0547095E+003	-8.3944321E+001	7.669943625634187E+001	-2.9275905E-002	3.3165772E-005	7.4437141E+000	7.3608718E+000	1.000000000000000E+000	13	1.3956872E-001	2.3051265E-005	2.471625688329181E-005	-4.0437613E-004	1.7423607E-005	1.6423907E-004	1.6516069E-004	8.3944321E+001	-3.651712496400457E-007
3.1603966E+000	7.2012231E+002	6.7314067E+003	6.7698164E+003	-8.3893753E+001	7.786123697817675E+001	-2.9285254E-002	7.6785203E-005	7.4812250E+000	7.3965740E+000	1.000000000000000E+000	13	1.3955958E-001	2.0614973E-005	2.515545374562978E-005	-8.3601190E-005	1.5712758E-005	1.4687642E-004	1.4771450E-004	8.3893753E+001	4.391968623379719E-007
2.8183618E+000	7.7655933E+002	7.5153315E+003	7.5553462E+003	-8.4100563E+001	7.915663471976586E+001	-2.9275995E-002	3.8050641E-006	7.5140700E+000	7.4346886E+000	1.000000000000000E+000	13	1.3956058E-001	1.8471765E-005	2.515797528736413E-005	-3.2418242E-004	1.3603978E-005	1.3165563E-004	1.3235661E-004	8.4100563E+001	2.521541734344190E-009
2.5136740E+000	8.4733838E+002	8.3622617E+003	8.4050820E+003	-8.4214035E+001	8.060067217501637E+001	-2.9274888E-002	4.0480878E-005	7.5715957E+000	7.4946442E+000	1.000000000000000E+000	13	1.3955705E-001	1.6603890E-005	2.475231093193063E-005	-2.4398866E-004	1.1994242E-005	1.1836951E-004	1.1897564E-004	8.4214035E+001	-4.056643554335002E-007
2.2398219E+000	9.5256635E+002	9.3257627E+003	9.3742861E+003	-8.4167831E+001	8.221541905167396E+001	-2.9274475E-002	3.7879487E-005	7.6194258E+000	7.5407505E+000	1.000000000000000E+000	13	1.3955942E-001	1.4887471E-005	2.531043060223162E-005	7.6786280E-005	1.0839743E-005	1.0612262E-004	1.0667479E-004	8.4167831E+001	5.581196703009891E-007
1.9970604E+000	1.0615017E+003	1.0407180E+004	1.0461175E+004	-8.4176140E+001	8.401967180407519E+001	-2.9267417E-002	5.9752238E-006	7.6576562E+000	7.5788107E+000	1.000000000000000E+000	13	1.3955793E-001	1.3340559E-005	2.494355222387013E-005	1.5698001E-004	9.6997328E-006	9.5098170E-005	9.5591560E-005	8.4176140E+001	-3.668783783614874E-007
1.7796129E+000	1.1703483E+003	1.1604380E+004	1.1663248E+004	-8.4240967E+001	8.603795917992829E+001	-2.9266885E-002	3.6072895E-005	7.7067742E+000	7.6291738E+000	1.000000000000000E+000	13	1.3955458E-001	1.1965327E-005	2.502360957087684E-005	-2.4398866E-004	8.6035152E-006	8.5306659E-005	8.5739412E-005	8.4240967E+001	8.005734700671343E-008
1.5846854E+000	1.3001444E+003	1.2945371E+004	1.3010496E+004	-8.4264839E+001	8.829712307386217E+001	-2.9267423E-002	1.9546251E-005	7.7582288E+000	7.6807542E+000	1.000000000000000E+000	13	1.3955486E-001	1.0726329E-005	2.528846003138632E-005	-1.6379493E-004	7.6807501E-006	7.6476288E-005	7.6861019E-005	8.4264839E+001	2.648504605094768E-007
1.4122382E+000	1.4522927E+003	1.4418665E+004	1.4491620E+004	-8.4248390E+001	9.082613679397036E+001	-2.9269930E-002	3.0780233E-005	7.8160458E+000	7.7375474E+000	1.000000000000000E+000	13	1.3955453E-001	9.6300155E-006	2.483588780322205E-005	-8.0534484E-004	6.9154462E-006	6.8658010E-005	6.9005400E-005	8.4248390E+001	-4.525722281642721E-007
1.2596743E+000	1.6336565E+003	1.6064469E+004	1.6147321E+004	-8.4193336E+001	9.365490583505016E+001	-2.9269950E-002	2.3580827E-005	7.8649416E+000	7.7844377E+000	1.000000000000000E+000	13	1.3955621E-001	8.6426853E-006	2.543826760325103E-005	-2.4398866E-004	6.2655595E-006	6.1612016E-005	6.1929779E-005	8.4193336E+001	6.023798000289837E-007
1.1224856E+000	1.8414066E+003	1.7912424E+004	1.8006824E+004	-8.4130585E+001	9.682314723884338E+001	-2.9270737E-002	2.1451773E-005	7.9156208E+000	7.8328433E+000	1.000000000000000E+000	13	1.3955294E-001	7.7500026E-006	2.486878773608414E-005	-5.6476361E-004	5.6790436E-006	5.5243363E-005	5.5534500E-005	8.4130585E+001	-5.694798671668944E-007
1.0000638E+000	2.0775383E+003	1.9974977E+004	2.0082725E+004	-8.4062187E+001	1.003722659407358E+002	-2.9266043E-002	2.8744416E-005	7.9672084E+000	7.8819461E+000	1.000000000000000E+000	13	1.3955496E-001	6.9490056E-006	2.542049087354619E-005	-4.0437613E-004	5.1511424E-006	4.9526883E-005	4.9794042E-005	8.4062187E+001	5.517031374620514E-007