EC-Lab ASCII FILE
Nb header lines : 60                          

Potentio Electrochemical Impedance Spectroscopy

Run on channel : 2 (SN 20919)
User : 
CE vs. WE compliance from -10 V to 10 V
Electrode connection : standard
Ewe ctrl range : min = -10.00 V, max = 10.00 V
Acquisition started on : 02/20/2020 14:48:44
Technique started on : 02/20/2020 14:48:45
Saved on :
	File : DE_65_10_60.mpr
	Directory : P:\Chemistry\Data\VMP3\Kyler\DOE\DE_65\60C\
	Host : 10.0.4.64
Device : VMP3 (SN 1432)
Address : USB
EC-Lab for windows v11.33 (software)
Internet server v11.32 (firmware)
Command interpretor v11.33 (firmware)
Electrode material : 
Initial state : 
Electrolyte : 
Comments : 
Electrode surface area : 0.001 cm²
Characteristic mass : 0.001 g
Equivalent Weight : 0.000 g/eq.
Density : 0.000 g/cm3
Record Analogic IN 1
Cycle Definition : Charge/Discharge alternance
Mode                Single sine         
E (V)               0.0000              
vs.                 Eoc                 
tE (h:m:s)          0:00:0.0000         
record              0                   
dI                  1.000               
unit dI             mA                  
dt (s)              0.000               
fi                  1.000               
unit fi             MHz                 
ff                  1.000               
unit ff             Hz                  
Nd                  20                  
Points              per decade          
spacing             Logarithmic         
Va (mV)             128.0               
pw                  0.50                
Na                  3                   
corr                0                   
E range min (V)     -10.000             
E range max (V)     10.000              
I Range             Auto                
Bandwidth           5                   
nc cycles           0                   
goto Ns'            0                   
nr cycles           0                   
inc. cycle          1                   

freq/Hz	Re(Z)/Ohm	-Im(Z)/Ohm	|Z|/Ohm	Phase(Z)/deg	time/s	<Ewe>/V	<I>/mA	Cs/µF	Cp/µF	cycle number	I Range	|Ewe|/V	|I|/A	(Q-Qo)/mA.h	Analog IN 1/V	Re(Y)/Ohm-1	Im(Y)/Ohm-1	|Y|/Ohm-1	Phase(Y)/deg	dq/mA.h	
1.0000186E+006	1.1057947E+002	6.3379288E+001	1.2745490E+002	-2.9819437E+001	1.950494652643101E+000	-2.7242412E-003	-6.7156961E-004	2.5111041E-003	6.2093529E-004	1.000000000000000E+000	11	2.1489896E-003	1.6860784E-005	-1.372658217490728E-007	-2.9675924E-004	6.8070884E-003	3.9015235E-003	7.8459121E-003	2.9819437E+001	-1.372658217490728E-007
8.9124669E+005	1.1547337E+002	6.1101784E+001	1.3064275E+002	-2.7885187E+001	2.546472814254230E+000	-2.2875387E-003	-7.2825269E-004	2.9225929E-003	6.3930114E-004	1.000000000000000E+000	11	3.5573610E-003	2.7229687E-005	-2.727731767835293E-007	-2.9675924E-004	6.7656767E-003	3.5800021E-003	7.6544625E-003	2.7885187E+001	-1.355073550344564E-007
7.9433269E+005	1.2140163E+002	5.9260033E+001	1.3509296E+002	-2.6018490E+001	3.141475962504046E+000	-1.9391645E-003	-7.5464253E-004	3.3810828E-003	6.5060018E-004	1.000000000000000E+000	11	5.5986256E-003	4.1442767E-005	-3.610003452534632E-007	-1.3639758E-004	6.6521051E-003	3.2471062E-003	7.4023106E-003	2.6018490E+001	-8.822716846993397E-008
7.0794981E+005	1.2758038E+002	5.8173309E+001	1.4021729E+002	-2.4511742E+001	3.737483297503786E+000	-1.6447981E-003	-7.1933115E-004	3.8645051E-003	6.6517864E-004	1.000000000000000E+000	11	8.3946902E-003	5.9869155E-005	-3.175780635113673E-007	4.2486819E-004	6.4890450E-003	2.9588344E-003	7.1317884E-003	2.4511742E+001	4.342228174209596E-008
6.3095681E+005	1.3343399E+002	5.7244522E+001	1.4519492E+002	-2.3219818E+001	4.333489139127778E+000	-1.3810985E-003	-6.5800076E-004	4.4064270E-003	6.8493857E-004	1.000000000000000E+000	11	1.1990945E-002	8.2585153E-005	-3.875224210080180E-007	1.0414491E-004	6.3294158E-003	2.7153830E-003	6.8872934E-003	2.3219818E+001	-6.994435749665071E-008
5.6234225E+005	1.3898724E+002	5.6284195E+001	1.4995120E+002	-2.2045952E+001	4.929493300762260E+000	-1.1806347E-003	-6.4870797E-004	5.0284364E-003	7.0844474E-004	1.000000000000000E+000	11	1.6434688E-002	1.0960025E-004	-6.705397268766925E-007	-2.1657841E-004	6.1812317E-003	2.5031483E-003	6.6688363E-003	2.2045952E+001	-2.830173058686746E-007
5.0120619E+005	1.4428044E+002	5.5193779E+001	1.5447717E+002	-2.0934109E+001	5.526477382489247E+000	-1.0366020E-003	-7.3289615E-004	5.7532545E-003	7.3445507E-004	1.000000000000000E+000	11	2.1743067E-002	1.4075261E-004	-4.752820336272837E-007	2.3964079E-005	6.0461485E-003	2.3129247E-003	6.4734481E-003	2.0934109E+001	1.952576932494089E-007
4.4668572E+005	1.4931676E+002	5.4031654E+001	1.5879204E+002	-1.9893127E+001	6.122476637450745E+000	-9.0174138E-004	-6.7937037E-004	6.5943166E-003	7.6349970E-004	1.000000000000000E+000	11	2.7900031E-002	1.7570170E-004	-1.966207154295666E-007	-3.7694006E-004	5.9217638E-003	2.1428452E-003	6.2975450E-003	1.9893127E+001	2.786613181977171E-007
3.9810347E+005	1.5399927E+002	5.2733887E+001	1.6277788E+002	-1.8902714E+001	6.718480985757196E+000	-8.4325921E-004	-7.1449502E-004	7.5811385E-003	7.9565210E-004	1.000000000000000E+000	11	3.4950100E-002	2.1471038E-004	-2.313792529320280E-007	1.8432573E-004	5.8120308E-003	1.9902105E-003	6.1433408E-003	1.8902714E+001	-3.475853750246139E-008
3.5480997E+005	1.5824542E+002	5.1356197E+001	1.6637029E+002	-1.7980068E+001	7.313472987356363E+000	-8.0470619E-004	-6.1413675E-004	8.7343678E-003	8.3227275E-004	1.000000000000000E+000	11	4.2886958E-002	2.5778016E-004	1.275660123404426E-007	2.3964079E-005	5.7171504E-003	1.8554162E-003	6.0106888E-003	1.7980068E+001	3.589452652724705E-007
3.1622997E+005	1.6217729E+002	5.0006466E+001	1.6971187E+002	-1.7136856E+001	7.908487095584860E+000	-8.4208447E-004	-6.8698724E-004	1.0064471E-002	8.7381370E-004	1.000000000000000E+000	11	5.1862288E-002	3.0559022E-004	1.068518618057068E-007	-3.7694006E-004	5.6307414E-003	1.7362079E-003	5.8923396E-003	1.7136856E+001	-2.071415053473579E-008
2.8183453E+005	1.6583067E+002	4.8551487E+001	1.7279195E+002	-1.6318844E+001	8.503473817225313E+000	-8.3869119E-004	-6.1784941E-004	1.1631169E-002	9.1829337E-004	1.000000000000000E+000	11	6.1889052E-002	3.5817095E-004	4.065158679796797E-007	1.8432573E-004	5.5541531E-003	1.6261311E-003	5.7873069E-003	1.6318844E+001	2.996640061739729E-007
2.5118764E+005	1.6925093E+002	4.7114788E+001	1.7568631E+002	-1.5555736E+001	9.098491685435874E+000	-8.5222517E-004	-7.1170152E-004	1.3448214E-002	9.6717098E-004	1.000000000000000E+000	11	7.3064297E-002	4.1587930E-004	2.581010482778462E-007	-5.6216748E-005	5.4834667E-003	1.5264458E-003	5.6919632E-003	1.5555736E+001	-1.484148197018334E-007
2.2387173E+005	1.7238182E+002	4.5741013E+001	1.7834723E+002	-1.4860806E+001	9.694478327088291E+000	-8.7142678E-004	-8.1577431E-004	1.5542294E-002	1.0223365E-003	1.000000000000000E+000	11	8.5325293E-002	4.7842230E-004	-9.026232535122997E-007	2.6450655E-004	5.4194941E-003	1.4380469E-003	5.6070397E-003	1.4860806E+001	-1.160724301790146E-006
1.9954350E+005	1.7531071E+002	4.4448570E+001	1.8085774E+002	-1.4227070E+001	1.029048278208938E+001	-8.4210181E-004	-6.6598173E-004	1.7944228E-002	1.0838424E-003	1.000000000000000E+000	11	9.8722823E-002	5.4585899E-004	-1.195645050274632E-006	2.6450655E-004	5.3596231E-003	1.3588879E-003	5.5292076E-003	1.4227070E+001	-2.930217967623321E-007
1.7783180E+005	1.7802927E+002	4.3300339E+001	1.8321938E+002	-1.3670069E+001	1.088648321040091E+001	-8.5807842E-004	-7.3325651E-004	2.0668998E-002	1.1544077E-003	1.000000000000000E+000	11	1.1320189E-001	6.1784894E-004	-2.237922990093163E-006	-5.3730176E-004	5.3033298E-003	1.2898777E-003	5.4579382E-003	1.3670069E+001	-1.042277939818531E-006
1.5848613E+005	1.8060414E+002	4.2275604E+001	1.8548607E+002	-1.3174524E+001	1.134647147220676E+001	-8.2946126E-004	-7.5313565E-004	2.3754125E-002	1.2339459E-003	1.000000000000000E+000	11	1.2874517E-001	6.9409615E-004	-2.260906973252228E-006	2.6450655E-004	5.2493447E-003	1.2287606E-003	5.3912406E-003	1.3174524E+001	-2.298398315906522E-008
1.4125594E+005	1.8299713E+002	4.1424286E+001	1.8762708E+002	-1.2754844E+001	1.194149686049786E+001	-8.1225415E-004	-7.6280074E-004	2.7199339E-002	1.3257982E-003	1.000000000000000E+000	11	1.2918837E-001	6.8853801E-004	-3.144460559473373E-006	-2.9675924E-004	5.1982030E-003	1.1766952E-003	5.3297211E-003	1.2754844E+001	-8.835535862211449E-007
1.2590930E+005	1.8527429E+002	4.0745037E+001	1.8970166E+002	-1.2402903E+001	1.253849251553766E+001	-7.8596809E-004	-7.0184394E-004	3.1023275E-002	1.4311818E-003	1.000000000000000E+000	11	1.2976736E-001	6.8406021E-004	-3.930473021768395E-006	2.3964079E-005	5.1484075E-003	1.1322242E-003	5.2714352E-003	1.2402903E+001	-7.860124622950223E-007
1.1220494E+005	1.8745015E+002	4.0250500E+001	1.9172287E+002	-1.2118897E+001	1.313347363713547E+001	-7.0681161E-004	-4.7046453E-004	3.5240076E-002	1.5532150E-003	1.000000000000000E+000	11	1.2963369E-001	6.7615142E-004	-4.073620600341302E-006	-3.7694006E-004	5.0996216E-003	1.0950235E-003	5.2158618E-003	1.2118897E+001	-1.431475785729068E-007
1.0000371E+005	1.8956476E+002	3.9949505E+001	1.9372858E+002	-1.1900563E+001	1.372947422540165E+001	-7.3393667E-004	-6.0947827E-004	3.9837550E-002	1.6940570E-003	1.000000000000000E+000	11	1.2971832E-001	6.6958793E-004	-4.249032361599449E-006	2.6450655E-004	5.0509167E-003	1.0644470E-003	5.1618610E-003	1.1900563E+001	-1.754117612581467E-007
8.9129305E+004	1.9162804E+002	3.9835285E+001	1.9572469E+002	-1.1743293E+001	1.432547622706625E+001	-7.3796342E-004	-6.9217966E-004	4.4826172E-002	1.8568479E-003	1.000000000000000E+000	11	1.2958533E-001	6.6207960E-004	-3.276011043021249E-006	-5.3730176E-004	5.0022779E-003	1.0398644E-003	5.1092175E-003	1.1743293E+001	9.730213185782002E-007
7.9433273E+004	1.9363646E+002	3.9929783E+001	1.9771056E+002	-1.1651646E+001	1.492049332198803E+001	-6.9307210E-004	-5.9888611E-004	5.0178852E-002	2.0467034E-003	1.000000000000000E+000	11	1.2954545E-001	6.5522781E-004	-2.936370945147549E-006	-2.9675924E-004	4.9536736E-003	1.0214974E-003	5.0578988E-003	1.1651646E+001	3.396400978736994E-007
7.0794977E+004	1.9562611E+002	4.0243267E+001	1.9972255E+002	-1.1624447E+001	1.551649767029448E+001	-7.0289680E-004	-6.6597678E-004	5.5863023E-002	2.2680713E-003	1.000000000000000E+000	11	1.2940082E-001	6.4790290E-004	-3.077930262896188E-006	1.0414491E-004	4.9042501E-003	1.0088788E-003	5.0069457E-003	1.1624447E+001	-1.415593177486392E-007
6.3093828E+004	1.9761624E+002	4.0766476E+001	2.0177731E+002	-1.1656100E+001	1.611149639190990E+001	-6.9389236E-004	-6.3122466E-004	6.1877120E-002	2.5257580E-003	1.000000000000000E+000	11	1.2937690E-001	6.4118655E-004	-3.510708704807560E-006	-5.6216748E-005	4.8537562E-003	1.0012868E-003	4.9559586E-003	1.1656100E+001	-4.327784419113718E-007
5.6237012E+004	1.9965514E+002	4.1505390E+001	2.0392369E+002	-1.1743690E+001	1.657148948041140E+001	-7.0418260E-004	-6.9050683E-004	6.8185717E-002	2.8246655E-003	1.000000000000000E+000	11	1.4029011E-001	6.8795396E-004	-4.207875947396840E-006	1.8432573E-004	4.8011485E-003	9.9808874E-004	4.9037952E-003	1.1743690E+001	-6.971672425892798E-007
5.0122477E+004	2.0173334E+002	4.2484001E+001	2.0615826E+002	-1.1892418E+001	1.716748742872733E+001	-6.8908255E-004	-6.9701415E-004	7.4741565E-002	3.1740335E-003	1.000000000000000E+000	11	1.3031399E-001	6.3210656E-004	-4.552991631466688E-006	2.3964079E-005	4.7465293E-003	9.9959457E-004	4.8506423E-003	1.1892418E+001	-3.451156840698481E-007
4.4666715E+004	2.0386943E+002	4.3677849E+001	2.0849580E+002	-1.2092484E+001	1.762648150385940E+001	-6.9351902E-004	-7.0370291E-004	8.1578337E-002	3.5801623E-003	1.000000000000000E+000	11	1.3940348E-001	6.6861528E-004	-5.183673128016785E-006	2.6450655E-004	4.6898341E-003	1.0047699E-003	4.7962596E-003	1.2092484E+001	-6.306814965500966E-007
3.9814063E+004	2.0609781E+002	4.5088726E+001	2.1097227E+002	-1.2340369E+001	1.822249153218581E+001	-6.7840039E-004	-7.3362887E-004	8.8657543E-002	4.0494949E-003	1.000000000000000E+000	11	1.3002029E-001	6.1629090E-004	-5.119773167233991E-006	-1.3639758E-004	4.6304436E-003	1.0130181E-003	4.7399593E-003	1.2340369E+001	6.389996078279333E-008
3.5480996E+004	2.0843727E+002	4.6725750E+001	2.1361037E+002	-1.2635208E+001	1.868149054064997E+001	-6.6134206E-004	-6.6114531E-004	9.5999293E-002	4.5934180E-003	1.000000000000000E+000	11	1.3710043E-001	6.4182479E-004	-5.416712271298618E-006	-1.3639758E-004	4.5680483E-003	1.0240275E-003	4.6814205E-003	1.2635208E+001	-2.969391040646270E-007
3.1621143E+004	2.1090927E+002	4.8598179E+001	2.1643591E+002	-1.2975738E+001	1.927649603554164E+001	-6.6343043E-004	-5.8142049E-004	1.0356727E-001	5.2216039E-003	1.000000000000000E+000	11	1.2952209E-001	5.9843156E-004	-6.800755726639181E-006	-1.3639758E-004	4.5023267E-003	1.0374361E-003	4.6203053E-003	1.2975738E+001	-1.384043455340563E-006
2.8188096E+004	2.1349828E+002	5.0674339E+001	2.1942972E+002	-1.3352216E+001	1.973549349737004E+001	-6.6305726E-004	-6.4107706E-004	1.1142081E-001	5.9422594E-003	1.000000000000000E+000	11	1.3466311E-001	6.1369583E-004	-6.719848088399481E-006	-2.9675924E-004	4.4340794E-003	1.0524397E-003	4.5572678E-003	1.3352216E+001	8.090763823969964E-008
2.5116910E+004	2.1627940E+002	5.2971695E+001	2.2267191E+002	-1.3762113E+001	2.019549015918165E+001	-6.7278859E-004	-6.8716757E-004	1.1962172E-001	6.7696613E-003	1.000000000000000E+000	11	1.3914222E-001	6.2487548E-004	-6.547971335954370E-006	2.6450655E-004	4.3619862E-003	1.0683486E-003	4.4909124E-003	1.3762113E+001	1.718767524451119E-007
2.2389027E+004	2.1921861E+002	5.5497498E+001	2.2613441E+002	-1.4206549E+001	2.079148936082493E+001	-6.6842663E-004	-6.7861908E-004	1.2808891E-001	7.7148057E-003	1.000000000000000E+000	11	1.2945560E-001	5.7247188E-004	-6.025531163319506E-006	-2.9675924E-004	4.2869076E-003	1.0852757E-003	4.4221487E-003	1.4206549E+001	5.224401726348638E-007
1.9948783E+004	2.2237819E+002	5.8233009E+001	2.2987636E+002	-1.4674248E+001	2.125148610267206E+001	-6.6255411E-004	-7.0445205E-004	1.3700439E-001	8.7919328E-003	1.000000000000000E+000	11	1.3231322E-001	5.7558430E-004	-6.563708191874967E-006	-2.9675924E-004	4.2082695E-003	1.1019974E-003	4.3501644E-003	1.4674248E+001	-5.381770285554616E-007
1.7786895E+004	2.2572839E+002	6.1179985E+001	2.3387239E+002	-1.5164760E+001	2.171148425785941E+001	-6.6350476E-004	-7.1337208E-004	1.4625497E-001	1.0008557E-002	1.000000000000000E+000	11	1.3463488E-001	5.7567668E-004	-6.398126840145172E-006	-6.9766340E-004	4.1269409E-003	1.1185398E-003	4.2758361E-003	1.5164760E+001	1.655813517297955E-007
1.5847686E+004	2.2931566E+002	6.4320786E+001	2.3816556E+002	-1.5668286E+001	2.217148633304168E+001	-6.6339271E-004	-6.9014158E-004	1.5613596E-001	1.1388007E-002	1.000000000000000E+000	11	1.3650273E-001	5.7314220E-004	-6.596121482932682E-006	-1.3639758E-004	4.0427395E-003	1.1339488E-003	4.1987598E-003	1.5668286E+001	-1.979946427875097E-007
1.4121879E+004	2.3310762E+002	6.7663322E+001	2.4272925E+002	-1.6186241E+001	2.263147936822497E+001	-6.7368336E-004	-7.0389372E-004	1.6656139E-001	1.2943054E-002	1.000000000000000E+000	11	1.3795951E-001	5.6836789E-004	-6.422939173699383E-006	-1.3639758E-004	3.9565098E-003	1.1484422E-003	4.1198167E-003	1.6186241E+001	1.731823092332987E-007
1.2590932E+004	2.3717148E+002	7.1186600E+001	2.4762439E+002	-1.6707035E+001	2.309047616340104E+001	-6.6395197E-004	-6.7397224E-004	1.7756772E-001	1.4674851E-002	1.000000000000000E+000	11	1.3908271E-001	5.6166807E-004	-6.646921158401205E-006	-2.1657841E-004	3.8679033E-003	1.1609443E-003	4.0383744E-003	1.6707035E+001	-2.239819847018225E-007
1.1217711E+004	2.4147432E+002	7.4926071E+001	2.5283150E+002	-1.7238379E+001	2.354949567854055E+001	-6.5828458E-004	-6.3364388E-004	1.8935770E-001	1.6629780E-002	1.000000000000000E+000	11	1.3993597E-001	5.5347523E-004	-6.637138867280252E-006	2.3964079E-005	3.7775361E-003	1.1721161E-003	3.9552036E-003	1.7238379E+001	9.782291120953471E-009
1.0002229E+004	2.4602637E+002	7.8854637E+001	2.5835446E+002	-1.7771328E+001	2.400848810034222E+001	-6.6421292E-004	-6.7025569E-004	2.0178835E-001	1.8798301E-002	1.000000000000000E+000	11	1.4056872E-001	5.4409250E-004	-6.286018107967619E-006	-5.3730176E-004	3.6859524E-003	1.1813955E-003	3.8706511E-003	1.7771328E+001	3.511207593126326E-007
8.9149297E+003	2.5080182E+002	8.2975410E+001	2.6417130E+002	-1.8306309E+001	2.463290138333105E+001	-6.3235324E-004	-6.3197198E-004	2.1515568E-001	2.1226596E-002	1.000000000000000E+000	11	1.2928854E-001	4.8941176E-004	-5.763963333804794E-006	2.6450655E-004	3.5938458E-003	1.1889898E-003	3.7854225E-003	1.8306309E+001	5.220547741628252E-007
7.9439976E+003	2.5587164E+002	8.7309998E+001	2.7035779E+002	-1.8840963E+001	2.515898948832182E+001	-6.3354638E-004	-6.8252196E-004	2.2946532E-001	2.3931352E-002	1.000000000000000E+000	11	1.2958238E-001	4.7929960E-004	-6.249021069767574E-006	-3.7694006E-004	3.5006155E-003	1.1945001E-003	3.6988023E-003	1.8840963E+001	-4.850577359627803E-007
7.0822334E+003	2.6114322E+002	9.1845573E+001	2.7682376E+002	-1.9377066E+001	2.573588706238661E+001	-6.1756966E-004	-6.4795424E-004	2.4467617E-001	2.6934033E-002	1.000000000000000E+000	11	1.2978610E-001	4.6884021E-004	-6.249602415754149E-006	2.3964079E-005	3.4077838E-003	1.1985371E-003	3.6124066E-003	1.9377066E+001	-5.813459865748800E-010
6.3077344E+003	2.6669440E+002	9.6650185E+001	2.8366733E+002	-1.9920542E+001	2.637055234584841E+001	-6.2237942E-004	-7.9867704E-004	2.6106223E-001	3.0306151E-002	1.000000000000000E+000	11	1.2992144E-001	4.5800637E-004	-6.306666346823881E-006	2.3964079E-005	3.3143261E-003	1.2011135E-003	3.5252562E-003	1.9920542E+001	-5.706393106973154E-008
5.6210552E+003	2.7248065E+002	1.0165727E+002	2.9082626E+002	-2.0459574E+001	2.707129208577680E+001	-6.1458681E-004	-8.0666854E-004	2.7852476E-001	3.4030903E-002	1.000000000000000E+000	11	1.3000172E-001	4.4700818E-004	-6.634260376016351E-006	2.3964079E-005	3.2215766E-003	1.2019080E-003	3.4384790E-003	2.0459574E+001	-3.275940291924699E-007
5.0116035E+003	2.7848740E+002	1.0693907E+002	2.9831393E+002	-2.1006773E+001	2.783169956196070E+001	-6.1374798E-004	-8.5889158E-004	2.9696620E-001	3.8162142E-002	1.000000000000000E+000	11	1.3003600E-001	4.3590320E-004	-7.150809742496171E-006	1.8432573E-004	3.1293815E-003	1.2016814E-003	3.3521734E-003	2.1006773E+001	-5.165493664798202E-007
4.4664292E+003	2.8469467E+002	1.1252654E+002	3.0612625E+002	-2.1566578E+001	2.859168157138629E+001	-6.1152939E-004	-8.2116493E-004	3.1666839E-001	4.2787164E-002	1.000000000000000E+000	11	1.3004802E-001	4.2481825E-004	-7.696317759106427E-006	-5.6216748E-005	3.0379330E-003	1.2007534E-003	3.2666260E-003	2.1566578E+001	-5.455080166102563E-007
3.9812742E+003	2.9120160E+002	1.1843182E+002	3.1436359E+002	-2.2131598E+001	2.935170064748672E+001	-6.1859499E-004	-8.2432409E-004	3.3754343E-001	4.7907330E-002	1.000000000000000E+000	11	1.3003641E-001	4.1364972E-004	-7.969908335960807E-006	-2.9675924E-004	2.9466550E-003	1.1984059E-003	3.1810300E-003	2.2131598E+001	-2.735905768543800E-007
3.5465955E+003	2.9797238E+002	1.2477410E+002	3.2304196E+002	-2.2721199E+001	3.011194316358888E+001	-6.1029894E-004	-8.1317406E-004	3.5965329E-001	5.3655602E-002	1.000000000000000E+000	11	1.3001445E-001	4.0246922E-004	-8.369042674422316E-006	-2.1657841E-004	2.8553419E-003	1.1956568E-003	3.0955730E-003	2.2721199E+001	-3.991343384615084E-007
3.1610112E+003	3.0494437E+002	1.3145300E+002	3.3207071E+002	-2.3319527E+001	3.087170199968386E+001	-6.1292772E-004	-8.1298803E-004	3.8302186E-001	6.0021035E-002	1.000000000000000E+000	11	1.2998417E-001	3.9143523E-004	-8.725151358295181E-006	2.3964079E-005	2.7654096E-003	1.1920910E-003	3.0114069E-003	2.3319527E+001	-3.561086838728650E-007
2.8172952E+003	3.1218860E+002	1.3860809E+002	3.4157565E+002	-2.3940664E+001	3.163193467576639E+001	-6.0701795E-004	-7.8492577E-004	4.0756717E-001	6.7112364E-002	1.000000000000000E+000	11	1.2994394E-001	3.8042504E-004	-8.712063728023269E-006	2.6450655E-004	2.6757356E-003	1.1879955E-003	2.9276090E-003	2.3940664E+001	1.308763027191129E-008
2.5108032E+003	3.1944232E+002	1.4603926E+002	3.5124188E+002	-2.4568432E+001	3.239169812521141E+001	-6.0463179E-004	-7.7210250E-004	4.3404806E-001	7.5035103E-002	1.000000000000000E+000	11	1.2988111E-001	3.6977686E-004	-8.616949025688679E-006	2.3964079E-005	2.5892849E-003	1.1837420E-003	2.8470408E-003	2.4568432E+001	9.511470233459021E-008
2.2378516E+003	3.2749454E+002	1.5458640E+002	3.6214587E+002	-2.5268595E+001	3.340293699988979E+001	-6.2379596E-004	-1.1466023E-004	4.6006328E-001	8.3828762E-002	1.000000000000000E+000	12	1.3436341E-001	3.7102014E-004	-8.770226911916527E-006	-1.3639758E-004	2.4971059E-003	1.1787025E-003	2.7613181E-003	2.5268595E+001	-1.532778862278480E-007
1.9956389E+003	3.3549579E+002	1.6336787E+002	3.7315744E+002	-2.5963518E+001	3.416269775599358E+001	-6.2495185E-004	-1.0803996E-004	4.8817047E-001	9.3566552E-002	1.000000000000000E+000	12	1.3398050E-001	3.5904549E-004	-8.529231956168790E-006	-4.5712088E-004	2.4093662E-003	1.1732280E-003	2.6798339E-003	2.5963518E+001	2.409949557477373E-007
1.7782927E+003	3.4384756E+002	1.7295216E+002	3.8489426E+002	-2.6701975E+001	3.492296619209810E+001	-6.2273344E-004	-1.2795735E-004	5.1747680E-001	1.0448646E-001	1.000000000000000E+000	12	1.3358785E-001	3.4707677E-004	-8.618522274010401E-006	1.8432573E-004	2.3210424E-003	1.1674629E-003	2.5981162E-003	2.6701975E+001	-8.929031784161073E-008
1.5855076E+003	3.5246585E+002	1.8323981E+002	3.9725180E+002	-2.7469002E+001	3.568268361486116E+001	-6.2668568E-004	-1.0986818E-004	5.4781252E-001	1.1655740E-001	1.000000000000000E+000	12	1.3320810E-001	3.3532409E-004	-8.935475730235340E-006	-5.6216748E-005	2.2334966E-003	1.1611494E-003	2.5172951E-003	2.7469002E+001	-3.169534562249392E-007
1.4118373E+003	3.6145071E+002	1.9455589E+002	4.1048584E+002	-2.8291979E+001	3.644421605099342E+001	-6.2252843E-004	-1.0561604E-004	5.7941681E-001	1.3016179E-001	1.000000000000000E+000	12	1.3284075E-001	3.2361835E-004	-9.067405394748979E-006	-2.9675924E-004	2.1451255E-003	1.1546438E-003	2.4361375E-003	2.8291979E+001	-1.319296645136395E-007
1.2587914E+003	3.7069907E+002	2.0671495E+002	4.2443948E+002	-2.9145588E+001	3.720392323375563E+001	-6.2588410E-004	-1.1581778E-004	6.1163801E-001	1.4507972E-001	1.000000000000000E+000	12	1.3249576E-001	3.1216643E-004	-9.366959753856968E-006	-2.1657841E-004	2.0577374E-003	1.1474673E-003	2.3560484E-003	2.9145588E+001	-2.995543591079889E-007
1.1217948E+003	3.8036044E+002	2.2003946E+002	4.3942169E+002	-3.0049488E+001	3.796244556308375E+001	-6.2200642E-004	-1.0214784E-004	6.4477193E-001	1.6167553E-001	1.000000000000000E+000	12	1.3217816E-001	3.0080025E-004	-9.217408765791333E-006	2.6450655E-004	1.9698464E-003	1.1395611E-003	2.2757184E-003	3.0049488E+001	1.495509880656348E-007
1.0003201E+003	3.9034338E+002	2.3450281E+002	4.5536746E+002	-3.0995777E+001	3.872166546586959E+001	-6.2431814E-004	-1.0998064E-004	6.7847383E-001	1.7993067E-001	1.000000000000000E+000	12	1.3188508E-001	2.8962342E-004	-9.393654700675849E-006	-1.3639758E-004	1.8824473E-003	1.1308996E-003	2.1960286E-003	3.0995777E+001	-1.762459348845159E-007
8.9142657E+002	4.0083047E+002	2.5042018E+002	4.7262601E+002	-3.1995218E+001	3.948041235518758E+001	-6.1986258E-004	-1.0384597E-004	7.1296012E-001	2.0015600E-001	1.000000000000000E+000	12	1.3161242E-001	2.7847054E-004	-9.539098129990814E-006	-2.1657841E-004	1.7944258E-003	1.1210735E-003	2.1158378E-003	3.1995218E+001	-1.454434293149643E-007
7.9423773E+002	4.1189682E+002	2.6788724E+002	4.9134769E+002	-3.3038952E+001	4.023993148462614E+001	-6.1973208E-004	-1.3933607E-004	7.4802756E-001	2.2235341E-001	1.000000000000000E+000	12	1.3136724E-001	2.6736106E-004	-9.399101670073933E-006	-1.3639758E-004	1.7061241E-003	1.1096197E-003	2.0352188E-003	3.3038952E+001	1.399964599168805E-007
7.0750946E+002	4.2352570E+002	2.8703003E+002	5.1162509E+002	-3.4126110E+001	4.100144370741327E+001	-6.1766279E-004	-8.7230932E-005	7.8371930E-001	2.4666728E-001	1.000000000000000E+000	12	1.3113596E-001	2.5631260E-004	-9.632989814787935E-006	1.0414491E-004	1.6179909E-003	1.0965379E-003	1.9545562E-003	3.4126110E+001	-2.338881447140020E-007
6.3100964E+002	4.3571671E+002	3.0780106E+002	5.3347028E+002	-3.5238331E+001	4.175945169010083E+001	-6.1965757E-004	-1.1168124E-004	8.1943405E-001	2.7279335E-001	1.000000000000000E+000	12	1.3093494E-001	2.4543999E-004	-9.681937849797477E-006	-2.9675924E-004	1.5310302E-003	1.0815577E-003	1.8745187E-003	3.5238331E+001	-4.894803500954219E-008
5.6233929E+002	4.4874072E+002	3.3066119E+002	5.5740924E+002	-3.6385189E+001	4.251594111273880E+001	-6.2661129E-004	-9.9092773E-005	8.5593045E-001	3.0120113E-001	1.000000000000000E+000	12	1.3074753E-001	2.3456289E-004	-9.497381640698425E-006	5.0504901E-004	1.4442659E-003	1.0642285E-003	1.7940140E-003	3.6385189E+001	1.845562090990526E-007
5.0144415E+002	4.6246869E+002	3.5555063E+002	5.8334686E+002	-3.7553448E+001	4.327317210866022E+001	-6.2129815E-004	-1.0560127E-004	8.9268059E-001	3.3162349E-001	1.000000000000000E+000	12	1.3058451E-001	2.2385397E-004	-9.675502120331253E-006	1.8432573E-004	1.3590287E-003	1.0448351E-003	1.7142460E-003	3.7553448E+001	-1.781204796328288E-007
4.4685895E+002	4.7731146E+002	3.8288904E+002	6.1190704E+002	-3.8735840E+001	4.402993819798576E+001	-6.2053383E-004	-9.2864058E-005	9.3020087E-001	3.6420986E-001	1.000000000000000E+000	12	1.3042721E-001	2.1314873E-004	-9.473189326388819E-006	2.6450655E-004	1.2747674E-003	1.0225911E-003	1.6342351E-003	3.8735840E+001	2.023127939424341E-007
3.9808920E+002	4.9320911E+002	4.1296384E+002	6.4326849E+002	-3.9939430E+001	4.479272386089724E+001	-6.2142860E-004	-1.0662706E-004	9.6811664E-001	3.9899474E-001	1.000000000000000E+000	12	1.3030146E-001	2.0256155E-004	-9.488446309604721E-006	2.6450655E-004	1.1919184E-003	9.9799293E-004	1.5545608E-003	3.9939430E+001	-1.525698321590193E-008
3.5465955E+002	5.1030258E+002	4.4557294E+002	6.7745404E+002	-4.1125980E+001	4.555296155033284E+001	-6.2543678E-004	-1.2852169E-004	1.0071397E+000	4.3568000E-001	1.000000000000000E+000	12	1.3017228E-001	1.9214924E-004	-9.402578825952029E-006	-1.3639758E-004	1.1119060E-003	9.7086566E-004	1.4761148E-003	4.1125980E+001	8.586748365269245E-008
3.1631586E+002	5.2853143E+002	4.8112860E+002	7.1472388E+002	-4.2311977E+001	4.630994446628029E+001	-6.1734591E-004	-8.2775179E-005	1.0457743E+000	4.7389677E-001	1.000000000000000E+000	12	1.3007063E-001	1.8198724E-004	-9.561963050354582E-006	3.4468737E-004	1.0346519E-003	9.4185618E-004	1.3991417E-003	4.2311977E+001	-1.593842244025533E-007
2.8189429E+002	5.4821210E+002	5.1992688E+002	7.5555310E+002	-4.3483116E+001	4.706543199546286E+001	-6.2525040E-004	-1.0446450E-004	1.0859044E+000	5.1421666E-001	1.000000000000000E+000	12	1.2997665E-001	1.7202848E-004	-9.526209179716210E-006	2.3964079E-005	9.6032588E-004	9.1077754E-004	1.3235337E-003	4.3483116E+001	3.575387063837178E-008
2.5104436E+002	5.6952905E+002	5.6258331E+002	8.0053937E+002	-4.4648483E+001	4.782189984477009E+001	-6.2411319E-004	-9.5830095E-005	1.1268933E+000	5.5653322E-001	1.000000000000000E+000	12	1.2989277E-001	1.6225656E-004	-9.698154268715169E-006	2.6450655E-004	8.8869041E-004	8.7785232E-004	1.2491578E-003	4.4648483E+001	-1.719450889989585E-007
2.2392513E+002	5.9228467E+002	6.0836957E+002	8.4906696E+002	-4.5767532E+001	4.858473849433358E+001	-6.2692817E-004	-1.1248399E-004	1.1682879E+000	5.9979236E-001	1.000000000000000E+000	12	1.2981826E-001	1.5289520E-004	-9.862108771162133E-006	-5.6216748E-005	8.2157389E-004	8.4388570E-004	1.1777634E-003	4.5767532E+001	-1.639545024469640E-007
1.9955299E+002	6.1682361E+002	6.5859491E+002	9.0234064E+002	-4.6875828E+001	4.934621458381298E+001	-6.2402000E-004	-9.9000987E-005	1.2109982E+000	6.4511806E-001	1.000000000000000E+000	12	1.2975881E-001	1.4380246E-004	-1.000212998935604E-005	-5.6216748E-005	7.5756508E-004	8.0886745E-004	1.1082289E-003	4.6875828E+001	-1.400212181939028E-007
1.7778128E+002	6.4373883E+002	7.1345886E+002	9.6094916E+002	-4.7940731E+001	5.011424190030084E+001	-6.2426232E-004	-6.4257751E-005	1.2547730E+000	6.9167525E-001	1.000000000000000E+000	12	1.2970644E-001	1.3497742E-004	-1.000320205381205E-005	1.0414491E-004	6.9712213E-004	7.7262381E-004	1.0406377E-003	4.7940731E+001	-1.072064456013070E-009
1.5842838E+002	6.7242926E+002	7.7292023E+002	1.0244836E+003	-4.8977211E+001	5.088072740338976E+001	-6.2021689E-004	-8.6693748E-005	1.2997280E+000	7.3979568E-001	1.000000000000000E+000	12	1.2965184E-001	1.2655335E-004	-1.003307515110323E-005	2.3964079E-005	6.4067316E-004	7.3641841E-004	9.7610150E-004	4.8977211E+001	-2.987309729117737E-008
1.4131134E+002	7.0340167E+002	8.3710553E+002	1.0933982E+003	-4.9960392E+001	5.163388693248271E+001	-6.3045172E-004	-1.1237378E-004	1.3454356E+000	7.8861791E-001	1.000000000000000E+000	12	1.2961125E-001	1.1853984E-004	-9.991295684162145E-006	-2.9675924E-004	5.8836478E-004	7.0020230E-004	9.1457990E-004	4.9960392E+001	4.177946694108073E-008
1.2584569E+002	7.3695776E+002	9.0777777E+002	1.1692593E+003	-5.0929405E+001	5.238939336835756E+001	-6.1248016E-004	-1.0571604E-004	1.3931639E+000	8.3973002E-001	1.000000000000000E+000	12	1.2957148E-001	1.1081502E-004	-1.007994206981958E-005	-5.6216748E-005	5.3903996E-004	6.6398445E-004	8.5524231E-004	5.0929405E+001	-8.864638565743680E-008
1.1218996E+002	7.7337640E+002	9.8420819E+002	1.2517096E+003	-5.1840256E+001	5.313486431044294E+001	-6.2017964E-004	-1.0801007E-004	1.4413823E+000	8.9114004E-001	1.000000000000000E+000	12	1.2954608E-001	1.0349531E-004	-1.019816981732907E-005	2.3964079E-005	4.9360981E-004	6.2817382E-004	7.9890736E-004	5.1840256E+001	-1.182277475094852E-007
1.0003201E+002	8.1251935E+002	1.0670125E+003	1.3411575E+003	-5.2711090E+001	5.389469559988356E+001	-6.2301336E-004	-9.2624505E-005	1.4911166E+000	9.4382411E-001	1.000000000000000E+000	12	1.2952174E-001	9.6574593E-005	-1.026114148900403E-005	-3.7694006E-004	4.5172503E-004	5.9321203E-004	7.4562459E-004	5.2711090E+001	-6.297167167496023E-008
8.9115974E+001	8.5479486E+002	1.1584272E+003	1.4396625E+003	-5.3576660E+001	5.466175203630701E+001	-6.1859499E-004	-9.6279808E-005	1.5416856E+000	9.9818712E-001	1.000000000000000E+000	12	1.2949468E-001	8.9947949E-005	-1.025500394785078E-005	5.0504901E-004	4.1242078E-004	5.5891712E-004	6.9460727E-004	5.3576660E+001	6.137541153243878E-009
7.9415527E+001	9.0075641E+002	1.2575074E+003	1.5468313E+003	-5.4385860E+001	5.542623841922614E+001	-6.2359124E-004	-1.1873366E-004	1.5936911E+000	1.0532691E+000	1.000000000000000E+000	12	1.2948167E-001	8.3707688E-005	-1.031058663547042E-005	1.0414491E-004	3.7646227E-004	5.2556285E-004	6.4648292E-004	5.4385860E+001	-5.558268761963968E-008
7.0838745E+001	9.4957642E+002	1.3646575E+003	1.6625238E+003	-5.5168453E+001	5.617740493491874E+001	-6.2539958E-004	-1.0232246E-004	1.6463631E+000	1.1092699E+000	1.000000000000000E+000	12	1.2946266E-001	7.7871162E-005	-1.030088811042690E-005	1.0414491E-004	3.4355334E-004	4.9372821E-004	6.0149515E-004	5.5168453E+001	9.698525043518578E-009
6.3082302E+001	1.0036731E+003	1.4832640E+003	1.7909304E+003	-5.5915157E+001	5.695782187870645E+001	-6.1781198E-004	-9.4769632E-005	1.7009602E+000	1.1667389E+000	1.000000000000000E+000	12	1.2945125E-001	7.2281560E-005	-1.034568097776839E-005	-1.3639758E-004	3.1292110E-004	4.6244601E-004	5.5836898E-004	5.5915157E+001	-4.479286734148349E-008
5.6241817E+001	1.0614614E+003	1.6116653E+003	1.9298097E+003	-5.6630634E+001	5.770133212729706E+001	-6.1727146E-004	-1.1554523E-004	1.7558440E+000	1.2246350E+000	1.000000000000000E+000	12	1.2944072E-001	6.7074347E-005	-1.030312245878424E-005	-5.6216748E-005	2.8501995E-004	4.3275874E-004	5.1818579E-004	5.6630634E+001	4.255851898415138E-008
5.0144413E+001	1.1246013E+003	1.7515004E+003	2.0814614E+003	-5.7296341E+001	5.845817976325634E+001	-6.1568682E-004	-1.0527000E-004	1.8121216E+000	1.2831312E+000	1.000000000000000E+000	12	1.2942697E-001	6.2180814E-005	-1.028196532359712E-005	2.3964079E-005	2.5957439E-004	4.0427188E-004	4.8043168E-004	5.7296341E+001	2.115713518712053E-008
4.4671219E+001	1.1937190E+003	1.9055509E+003	2.2485750E+003	-5.7935200E+001	5.922222675956436E+001	-6.2045932E-004	-1.0012272E-004	1.8696994E+000	1.3427593E+000	1.000000000000000E+000	12	1.2942180E-001	5.7557252E-005	-1.031329826945145E-005	2.3964079E-005	2.3609534E-004	3.7688235E-004	4.4472612E-004	5.7935200E+001	-3.133294585433818E-008
3.9808922E+001	1.2695334E+003	2.0734150E+003	2.4312065E+003	-5.8521240E+001	5.998469122247479E+001	-6.1602239E-004	-9.4043091E-005	1.9282062E+000	1.4024334E+000	1.000000000000000E+000	12	1.2941264E-001	5.3229800E-005	-1.036072820793091E-005	1.0414491E-004	2.1478326E-004	3.5078626E-004	4.1131841E-004	5.8521240E+001	-4.742993847945425E-008
3.5465305E+001	1.3533804E+003	2.2587244E+003	2.6331492E+003	-5.9070843E+001	6.098314116321853E+001	-6.2085077E-004	-3.0939842E-005	1.9867957E+000	1.4619373E+000	1.000000000000000E+000	13	1.2965068E-001	4.9237879E-005	-1.028640168888044E-005	-5.6216748E-005	1.9519510E-004	3.2577093E-004	3.7977338E-004	5.9070843E+001	7.432651905047345E-008
3.1629551E+001	1.4442006E+003	2.4591809E+003	2.8518916E+003	-5.9575607E+001	6.170746269091615E+001	-6.2137278E-004	-2.7423592E-005	2.0461462E+000	1.5214286E+000	1.000000000000000E+000	13	1.2960872E-001	4.5446581E-005	-1.026240807652059E-005	2.6450655E-004	1.7756668E-004	3.0236007E-004	3.5064446E-004	5.9575607E+001	2.399361235984608E-008
2.8170074E+001	1.5462686E+003	2.6800815E+003	3.0941531E+003	-6.0017277E+001	6.251276867587876E+001	-6.2871794E-004	-2.5258980E-005	2.1080656E+000	1.5815996E+000	1.000000000000000E+000	13	1.2956572E-001	4.1874373E-005	-1.035827993735251E-005	-2.1657841E-004	1.6151070E-004	2.7993965E-004	3.2319021E-004	6.0017277E+001	-9.587186083192293E-008
2.5104435E+001	1.6594434E+003	2.9202356E+003	3.3587986E+003	-6.0392307E+001	6.326892215179396E+001	-6.2644359E-004	-2.9608775E-005	2.1709599E+000	1.6410419E+000	1.000000000000000E+000	13	1.2953021E-001	3.8564445E-005	-1.039255344612740E-005	4.2486819E-004	1.4709384E-004	2.5885107E-004	2.9772549E-004	6.0392307E+001	-3.427350877488339E-008
2.2385387E+001	1.7846296E+003	3.1824844E+003	3.6487134E+003	-6.0717766E+001	6.395542109102826E+001	-6.1781192E-004	-2.4475994E-005	2.2340312E+000	1.6995827E+000	1.000000000000000E+000	13	1.2950507E-001	3.5493351E-005	-1.032075879514110E-005	-1.3639758E-004	1.3405054E-004	2.3904891E-004	2.7406920E-004	6.0717766E+001	7.179465098629931E-008
1.9955299E+001	1.9263501E+003	3.4684888E+003	3.9675229E+003	-6.0952820E+001	6.471719134054729E+001	-6.2280823E-004	-2.3223156E-005	2.2994373E+000	1.7573704E+000	1.000000000000000E+000	13	1.2948371E-001	3.2635908E-005	-1.037590135761997E-005	-2.9675924E-004	1.2237602E-004	2.2034407E-004	2.5204642E-004	6.0952820E+001	-5.514256247887657E-008
1.7796129E+001	2.0851936E+003	3.7775850E+003	4.3148789E+003	-6.1101692E+001	6.556154754062300E+001	-6.1873480E-004	-2.6432859E-005	2.3674474E+000	1.8145611E+000	1.000000000000000E+000	13	1.2946361E-001	3.0003996E-005	-1.037236252402216E-005	3.4468737E-004	1.1199770E-004	2.0289766E-004	2.3175622E-004	6.1101692E+001	3.538833597808530E-009
1.5857576E+001	2.2659861E+003	4.1164053E+003	4.6988813E+003	-6.1168232E+001	6.628395032166736E+001	-6.2782306E-004	-3.0738898E-005	2.4381766E+000	1.8711667E+000	1.000000000000000E+000	13	1.2945388E-001	2.7549935E-005	-1.034274832001084E-005	3.4468737E-004	1.0262857E-004	1.8643575E-004	2.1281661E-004	6.1168232E+001	2.961420401132140E-008
1.4118974E+001	2.4730359E+003	4.4860649E+003	5.1225664E+003	-6.1133343E+001	6.708625401309109E+001	-6.2737573E-004	-2.4550960E-005	2.5127625E+000	1.9271138E+000	1.000000000000000E+000	13	1.2943888E-001	2.5268366E-005	-1.030158159124519E-005	1.8432573E-004	9.4244322E-005	1.7095837E-004	1.9521464E-004	6.1133343E+001	4.116672876565101E-008
1.2600808E+001	2.7030845E+003	4.8778486E+003	5.5767441E+003	-6.1006752E+001	6.797685888205888E+001	-6.1700097E-004	-2.9211209E-005	2.5893660E+000	1.9810189E+000	1.000000000000000E+000	13	1.2942675E-001	2.3208298E-005	-1.039184327930580E-005	1.8432573E-004	8.6915687E-005	1.5684363E-004	1.7931609E-004	6.1006752E+001	-9.026168806061256E-008
1.1224856E+001	2.9694001E+003	5.3068989E+003	6.0811606E+003	-6.0771423E+001	6.866089886121335E+001	-6.2683504E-004	-2.7787708E-005	2.6717665E+000	2.0347319E+000	1.000000000000000E+000	13	1.2941790E-001	2.1281776E-005	-1.027382963384060E-005	-1.3639758E-004	8.0296340E-005	1.4350527E-004	1.6444229E-004	6.0771423E+001	1.180136454651996E-007
1.0003201E+001	3.2722854E+003	5.7631924E+003	6.6273853E+003	-6.0412502E+001	6.942169820404524E+001	-6.1868830E-004	-2.8598759E-005	2.7606926E+000	2.0876603E+000	1.000000000000000E+000	13	1.2940753E-001	1.9526182E-005	-1.042806562952243E-005	-1.3639758E-004	7.4501797E-005	1.3121354E-004	1.5088907E-004	6.0412502E+001	-1.542359956818272E-007
8.9183798E+000	3.6183357E+003	6.2489668E+003	7.2209375E+003	-5.9927895E+001	7.026603787078056E+001	-6.1851105E-004	-2.5983913E-005	2.8557880E+000	2.1387265E+000	1.000000000000000E+000	13	1.2940688E-001	1.7921064E-005	-1.031936853288936E-005	-2.1657841E-004	6.9393958E-005	1.1984530E-004	1.3848617E-004	5.9927895E+001	1.086970966330741E-007
7.9395342E+000	4.0171658E+003	6.7685918E+003	7.8709248E+003	-5.9310829E+001	7.120471332873421E+001	-6.1870692E-004	-3.1436550E-005	2.9616027E+000	2.1901402E+000	1.000000000000000E+000	13	1.2940213E-001	1.6440525E-005	-1.045271013603512E-005	2.6450655E-004	6.4843764E-005	1.0925638E-004	1.2704988E-004	5.9310829E+001	-1.333416031457594E-007
7.0765405E+000	4.4681782E+003	7.3053198E+003	8.5634287E+003	-5.8548649E+001	7.176301402188255E+001	-6.3048903E-004	-3.3813722E-005	3.0786469E+000	2.2404900E+000	1.000000000000000E+000	13	1.2939833E-001	1.5110574E-005	-1.046994128793884E-005	5.0504901E-004	6.0930550E-005	9.9619385E-005	1.1677566E-004	5.8548649E+001	-1.723115190371771E-008
6.3105822E+000	4.9880503E+003	7.8748677E+003	9.3217051E+003	-5.7649261E+001	7.238317442467087E+001	-6.2763668E-004	-3.1084204E-005	3.2026348E+000	2.2856159E+000	1.000000000000000E+000	13	1.2939969E-001	1.3881548E-005	-1.048890932034172E-005	-1.3639758E-004	5.7403729E-005	9.0625937E-005	1.0727651E-004	5.7649261E+001	-1.896803240288129E-008
5.6205034E+000	5.5895093E+003	8.4623291E+003	1.0141678E+004	-5.6554573E+001	7.306964653731484E+001	-6.2661135E-004	-3.4885868E-006	3.3462241E+000	2.3297818E+000	1.000000000000000E+000	13	1.2939042E-001	1.2758285E-005	-1.044161498914658E-005	1.8432573E-004	5.4344309E-005	8.2275452E-005	9.8603014E-005	5.6554573E+001	4.729433119513970E-008
5.0144415E+000	6.2209116E+003	9.0283467E+003	1.0964068E+004	-5.5431519E+001	7.382715590656153E+001	-6.3520559E-004	-1.7485047E-005	3.5155182E+000	2.3837590E+000	1.000000000000000E+000	13	1.2938385E-001	1.1800716E-005	-1.032225721758186E-005	3.4468737E-004	5.1750027E-005	7.5104290E-005	9.1207017E-005	5.5431519E+001	1.193577715647121E-007
4.4693937E+000	6.9368975E+003	9.6557314E+003	1.1889227E+004	-5.4305672E+001	7.466853109319345E+001	-6.1632990E-004	-2.7903587E-005	3.6879611E+000	2.4324811E+000	1.000000000000000E+000	13	1.2938993E-001	1.0882955E-005	-1.031664519784479E-005	3.4468737E-004	4.9074748E-005	6.8309004E-005	8.4109757E-005	5.4305672E+001	5.612019737075445E-009
3.9778514E+000	7.7639966E+003	1.0242417E+004	1.2852500E+004	-5.2837006E+001	7.560517796434578E+001	-6.0959067E-004	-4.3798937E-005	3.9063318E+000	2.4808402E+000	1.000000000000000E+000	13	1.2938459E-001	1.0066881E-005	-1.049586115027397E-005	-2.1657841E-004	4.7001326E-005	6.2005078E-005	7.7805875E-005	5.2837006E+001	-1.792159524291799E-007
3.5511365E+000	8.6508467E+003	1.0820382E+004	1.3853440E+004	-5.1357822E+001	7.664643804050866E+001	-6.2330224E-004	-2.1283875E-005	4.1420007E+000	2.5268536E+000	1.000000000000000E+000	13	1.2938765E-001	9.3397484E-006	-1.046757393535078E-005	-2.1657841E-004	4.5075787E-005	5.6380293E-005	7.2184237E-005	5.1357822E+001	2.828721492318947E-008
3.1603966E+000	9.6354805E+003	1.1341636E+004	1.4882042E+004	-4.9649868E+001	7.780823313569999E+001	-6.2031939E-004	-2.3139959E-005	4.4402032E+000	2.5788686E+000	1.000000000000000E+000	13	1.2938258E-001	8.6938726E-006	-1.030478532506848E-005	1.0414491E-004	4.3505912E-005	5.1209510E-005	6.7195077E-005	4.9649868E+001	1.627886102823037E-007
2.8183618E+000	1.0708796E+004	1.1839465E+004	1.5964061E+004	-4.7870659E+001	7.910269823719864E+001	-6.0643681E-004	-3.8154147E-005	4.7697029E+000	2.6234252E+000	1.000000000000000E+000	13	1.2938410E-001	8.1047110E-006	-1.052719171482527E-005	2.3964079E-005	4.2019794E-005	4.6456378E-005	6.2640705E-005	4.7870659E+001	-2.224063897567960E-007
2.5136740E+000	1.1833883E+004	1.2262919E+004	1.7041713E+004	-4.6020023E+001	8.054673998578801E+001	-6.1762845E-004	-2.2264128E-005	5.1631808E+000	2.6734898E+000	1.000000000000000E+000	13	1.2938502E-001	7.5922544E-006	-1.045823779304429E-005	4.2486819E-004	4.0747484E-005	4.2224776E-005	5.8679547E-005	4.6020023E+001	6.895392178097933E-008
2.2398219E+000	1.3029322E+004	1.2605336E+004	1.8128920E+004	-4.4052441E+001	8.216135968911112E+001	-6.1334716E-004	-2.5862078E-005	5.6370540E+000	2.7253180E+000	1.000000000000000E+000	13	1.2938669E-001	7.1370323E-006	-1.035992104042149E-005	2.3964079E-005	3.9644045E-005	3.8353992E-005	5.5160483E-005	4.4052441E+001	9.831675262279979E-008
1.9970604E+000	1.4275330E+004	1.2878261E+004	1.9225885E+004	-4.2054695E+001	8.396473780146334E+001	-6.0894282E-004	-2.7943286E-005	6.1883049E+000	2.7766008E+000	1.000000000000000E+000	13	1.2938459E-001	6.7297078E-006	-1.062525677783980E-005	1.8432573E-004	3.8620110E-005	3.4840516E-005	5.2013213E-005	4.2054695E+001	-2.653357374183032E-007
1.7796129E+000	1.5572547E+004	1.3056384E+004	2.0321746E+004	-3.9977249E+001	8.598292824396049E+001	-6.0773431E-004	-2.4490091E-005	6.8497019E+000	2.8274534E+000	1.000000000000000E+000	13	1.2938525E-001	6.3668372E-006	-1.034025804931629E-005	2.6450655E-004	3.7708356E-005	3.1615560E-005	4.9208371E-005	3.9977249E+001	2.849987285235081E-007
1.5846854E+000	1.6897934E+004	1.3102373E+004	2.1382523E+004	-3.7789398E+001	8.824210549794952E+001	-6.0610124E-004	-2.7125336E-005	7.6652637E+000	2.8781216E+000	1.000000000000000E+000	13	1.2938422E-001	6.0509333E-006	-1.061857257646632E-005	-3.7694006E-004	3.6958612E-005	2.8657087E-005	4.6767163E-005	3.7789398E+001	-2.783145271500369E-007
1.4122382E+000	1.8207471E+004	1.3052064E+004	2.2402420E+004	-3.5634926E+001	9.077110729806009E+001	-6.0797471E-004	-2.6750717E-005	8.6344156E+000	2.9309032E+000	1.000000000000000E+000	13	1.2938273E-001	5.7753909E-006	-1.047568916860018E-005	2.3964079E-005	3.6279376E-005	2.6006946E-005	4.4638036E-005	3.5634926E+001	1.428834078661407E-007
1.2596743E+000	1.9504170E+004	1.2972643E+004	2.3424391E+004	-3.3628735E+001	9.359999249910470E+001	-6.0535286E-004	-2.6594194E-005	9.7394266E+000	2.9871271E+000	1.000000000000000E+000	13	1.2938343E-001	5.5234491E-006	-1.052403606061297E-005	-5.6216748E-005	3.5546011E-005	2.3642417E-005	4.2690546E-005	3.3628735E+001	-4.834689201278541E-008
1.1224856E+000	2.0787592E+004	1.2761770E+004	2.4392350E+004	-3.1546297E+001	9.676716067615780E+001	-6.0125504E-004	-2.7848722E-005	1.1110368E+001	3.0411859E+000	1.000000000000000E+000	13	1.2938388E-001	5.3042809E-006	-1.065788243256389E-005	1.0414491E-004	3.4937908E-005	2.1448830E-005	4.0996460E-005	3.1546297E+001	-1.338463719509199E-007
1.0000638E+000	2.1991799E+004	1.2417271E+004	2.5255254E+004	-2.9450457E+001	1.003151936980139E+002	-6.0088106E-004	-2.5880647E-005	1.2816406E+001	3.0982404E+000	1.000000000000000E+000	13	1.2938258E-001	5.1229968E-006	-1.043867559323321E-005	1.0414491E-004	3.4479210E-005	1.9468060E-005	3.9595721E-005	2.9450457E+001	2.192068393306828E-007